#             E [au]      sigma_0 [au^2]      sigma_1 [au^2]      sigma_2 [au^2]      sigma_3 [au^2]    sigma_tot [au^2]
    0.000000000000E0                 NaN                 NaN                 NaN                 NaN                 NaN
   5.000000000000E-2    7.778249597426E1   2.479342029899E-2   3.980561092746E-5  3.908523887335E-11    7.780732920021E1
   1.000000000000E-1    5.249351854445E1   8.903687846693E-2   5.483832695902E-4   2.506167943978E-9    5.258310380869E1
   1.500000000000E-1    3.905184137596E1   1.809638027503E-1   2.398487607819E-3   2.861468762930E-8    3.923520369493E1
   2.000000000000E-1    3.071597633895E1   2.921515632414E-1   6.572087447230E-3   1.612419099872E-7    3.101470015088E1
   2.500000000000E-1    2.504428183822E1   4.164591279159E-1   1.396046765226E-2   6.172074724922E-7    2.547470205099E1
   3.000000000000E-1    2.093823730787E1   5.493427906121E-1   2.527705590439E-2   1.850376094679E-6    2.151285900477E1
   3.500000000000E-1    1.783052782846E1   6.874019555639E-1   4.103381438283E-2   4.687507337984E-6    1.855896828591E1
   4.000000000000E-1    1.539856697249E1   8.280696706815E-1   6.155080764385E-2   1.049944959630E-5    1.628819795027E1
   4.500000000000E-1    1.344536590549E1   9.693969248509E-1   8.698094443345E-2   2.141106380352E-5    1.450176518583E1
   5.000000000000E-1    1.184381888430E1    1.109899257557E0   1.173397302558E-1   4.055418586586E-5    1.307109842630E1
   5.500000000000E-1    1.050823009427E1    1.248445727716E0   1.525346519498E-1   7.236902266147E-5    1.190928284295E1
   6.000000000000E-1    9.378713270965E0    1.384177266016E0   1.923916329911E-1   1.229606577735E-4    1.095540513063E1
   6.500000000000E-1    8.412150057469E0    1.516445782665E0   2.366775917600E-1   2.005188618177E-4    1.016547395076E1
   7.000000000000E-1    7.576700751154E0    1.644768174885E0   2.851189882339E-1   3.158112098577E-4    9.506903725483E0
   7.500000000000E-1    6.848339159186E0    1.768791195321E0   3.374166642001E-1   4.827616711178E-4    8.955029780378E0
   8.000000000000E-1    6.208591212473E0    1.888264336952E0   3.932574565732E-1   7.191294264665E-4    8.490832135425E0
   8.500000000000E-1    5.643016161021E0    2.003018715255E0   4.523231026740E-1   1.047305796469E-3    8.099405284746E0
   9.000000000000E-1    5.140160617876E0    2.112950482674E0   5.142969313607E-1   1.495250940401E-3    7.768903282851E0
   9.500000000000E-1    4.690822165438E0    2.218007704060E0   5.788687769580E-1   2.097596562576E-3    7.489796243018E0
    1.000000000000E0    4.287520671077E0    2.318179903992E0   6.457384877073E-1   2.896946437420E-3    7.254336009213E0
    1.050000000000E0    3.924112002734E0    2.413489689229E0   7.146183366073E-1   3.945413365383E-3    7.056165441935E0
    1.100000000000E0    3.595501333298E0    2.503986000160E0   7.852345851873E-1   5.306439467540E-3    6.890028358113E0
    1.150000000000E0    3.297427301757E0    2.589738647899E0   8.573284001926E-1   7.056956940366E-3    6.751551306789E0
    1.200000000000E0    3.026297402694E0    2.670833874313E0   9.306562827796E-1   9.289958854187E-3    6.637077518641E0
    1.250000000000E0    2.779060967676E0    2.747370730382E0    1.004990134451E0   1.211756502862E-2    6.543539397538E0
    1.300000000000E0    2.553110073303E0    2.819458114054E0    1.080117058437E0   1.567468692380E-2    6.468359932718E0
    1.350000000000E0    2.346201472146E0    2.887212339856E0    1.155838970482E0   2.012341890612E-2    6.409376201390E0
    1.400000000000E0    2.156394517488E0    2.950755143883E0    1.231972078912E0   2.565831203584E-2    6.364780052318E0
    1.450000000000E0    1.982001383102E0    3.010212042091E0    1.308346277514E0   3.251272225686E-2    6.333072424963E0
    1.500000000000E0    1.821546822728E0    3.065710978692E0    1.384804484731E0   4.096646855101E-2    6.313028754703E0
    1.550000000000E0    1.673735413144E0    3.117381214936E0    1.461201955305E0   5.135509075480E-2    6.303673674139E0
    1.600000000000E0    1.537424683471E0    3.165352415072E0    1.537405582814E0   6.408106295777E-2    6.304263744316E0
    1.650000000000E0    1.411602955597E0    3.209753895850E0    1.613293206674E0   7.962739903428E-2    6.314277457155E0
    1.700000000000E0    1.295370940565E0    3.250714013100E0    1.688752933977E0   9.857418464608E-2    6.333412072289E0
    1.750000000000E0    1.187926374026E0    3.288359661324E0    1.763682482959E0   1.216186871736E-1    6.361587205484E0
    1.800000000000E0    1.088551124150E0    3.322815868044E0    1.837988552242E0   1.495998319266E-1    6.398955376362E0
    1.850000000000E0   9.966003109327E-1    3.354205467674E0    1.911586219712E0   1.835279909919E-1    6.445919989311E0
    1.900000000000E0   9.114930857716E-1    3.382648841810E0    1.984398372082E0   2.246212019618E-1    6.503161501625E0
    1.950000000000E0   8.327047798762E-1    3.408263715011E0    2.056355165355E0   2.743491101580E-1    6.571672770399E0
    2.000000000000E0   7.597601903083E-1    3.431164998371E0    2.127393518125E0   3.344860780353E-1    6.652804784840E0
    2.050000000000E0   6.922278133381E-1    3.451464670548E0    2.197456634298E0   4.071749855617E-1    6.748324103746E0
    2.100000000000E0   6.297148791103E-1    3.469271694184E0    2.266493556597E0   4.950031642101E-1    6.860483294102E0
    2.150000000000E0   5.718630472788E-1    3.484691958068E0    2.334458748673E0   6.010915147023E-1    6.992105268722E0
    2.200000000000E0   5.183446788481E-1    3.497828243859E0    2.401311704974E0   7.291969041336E-1    7.146681531815E0
    2.250000000000E0   4.688595828784E-1    3.508780211805E0    2.467016586814E0   8.838260129148E-1    7.328482394412E0
    2.300000000000E0   4.231321742132E-1    3.517644403012E0    2.531541882777E0    1.070355282333E0    7.542673742335E0
    2.350000000000E0   3.809089848314E-1    3.524514255158E0    2.594860092709E0    1.295145563779E0    7.795428896478E0
    2.400000000000E0   3.419564706467E-1    3.529480129778E0    2.656947433414E0    1.565630202778E0    8.094014236617E0
    2.450000000000E0   3.060590829727E-1    3.532629349090E0    2.717783564725E0    1.890340039462E0    8.446812036250E0
    2.500000000000E0   2.730175599376E-1    3.534046240114E0    2.777351334888E0    2.278806673682E0    8.863221808622E0
    2.550000000000E0   2.426474135435E-1    3.533812185887E0    2.835636543592E0    2.741256027778E0    9.353352170801E0
    2.600000000000E0   2.147775839665E-1    3.532005680714E0    2.892627721876E0    3.287970929092E0    9.927381915649E0
    2.650000000000E0   1.892492434252E-1    3.528702390918E0    2.948315926727E0    3.928175099499E0    1.059444266057E1
    2.700000000000E0   1.659147236635E-1    3.523975218074E0    3.002694550872E0    4.668296183026E0    1.136088067564E1
    2.750000000000E0   1.446365610580E-1    3.517894364763E0    3.055759145508E0    5.509545062639E0    1.222783513397E1
    2.800000000000E0   1.252866369547E-1    3.510527402579E0    3.107507255865E0    6.444957476208E0    1.318827877161E1
    2.850000000000E0   1.077454057349E-1    3.501939341497E0    3.157938267658E0    7.456415535193E0    1.422403855008E1
    2.900000000000E0   9.190120123228E-2    3.492192700064E0    3.207053264584E0    8.512641160583E0    1.530378832646E1
    2.950000000000E0   7.764960774593E-2    3.481347576130E0    3.254854895841E0    9.569493251180E0    1.638334533090E1
    3.000000000000E0   6.489289491359E-2    3.469461718126E0    3.301347252503E0    1.057370415675E1    1.740940602229E1
    3.050000000000E0   5.353950340191E-2    3.456590595940E0    3.346535752860E0    1.147014879252E1    1.832681464473E1
    3.100000000000E0   4.350357924870E-2    3.442787472155E0    3.390427035889E0    1.221107849358E1    1.908779658087E1
    3.150000000000E0   3.470455047444E-2    3.428103471968E0    3.433028860955E0    1.276441393506E1    1.966025081845E1
    3.200000000000E0   2.706674175305E-2    3.412587653654E0    3.474350016082E0    1.311824770047E1    2.003225211196E1
    3.250000000000E0   2.051902241905E-2    3.396287077288E0    3.514400230812E0    1.328032711039E1    2.021153344091E1
    3.300000000000E0   1.499448608590E-2    3.379246873367E0    3.553190096188E0    1.327343051245E1    2.022086196809E1
    3.350000000000E0   1.043015659316E-2    3.361510310306E0    3.590730990298E0    1.312887300868E1    2.009154446588E1
    3.400000000000E0   6.766718947473E-3    3.343118860995E0    3.627035008016E0    1.288035823009E1    1.985727881804E1
    3.450000000000E0   3.948272840835E-3    3.324112268204E0    3.662114896044E0    1.255949180132E1    1.954966723841E1
    3.500000000000E0   1.922105452402E-3    3.304528609140E0    3.695983992421E0    1.219326200897E1    1.919569671598E1
    3.550000000000E0   6.384832556463E-4    3.284404358912E0    3.728656169994E0    1.180314612224E1    1.881684513440E1
    3.600000000000E0   5.045967036379E-5    3.263774452677E0    3.760145783839E0    1.140527825787E1    1.842924895406E1
    3.650000000000E0   1.136978765662E-4    3.242672346835E0    3.790467622287E0    1.101116438907E1    1.804441805606E1
    3.700000000000E0   7.863071304023E-4    3.221130078777E0    3.819636860934E0    1.062858309523E1    1.767013634207E1
    3.750000000000E0   2.028691398736E-3    3.199178325835E0    3.847669020042E0    1.026246303912E1    1.731133907640E1
    3.800000000000E0   3.803409331423E-3    3.176846462765E0    3.874579924705E0    9.915640062862E0    1.697086985966E1
    3.850000000000E0   6.075044296496E-3    3.154162618030E0    3.900385667906E0    9.589465127776E0    1.665008845801E1
    3.900000000000E0   8.810083934017E-3    3.131153728863E0    3.925102575939E0    9.284269746423E0    1.634933613516E1
    3.950000000000E0   1.197680832107E-2    3.107845595262E0    3.948747176023E0    8.999710305178E0    1.606827988478E1
    4.000000000000E0   1.554518560892E-2    3.084262932370E0    3.971336166355E0    8.735016117125E0    1.580616040146E1
    4.050000000000E0   1.948677562861E-2    3.060429421762E0    3.992886387966E0    8.489164152905E0    1.556196673826E1
    4.100000000000E0   2.377463914081E-2    3.036367761597E0    4.013414798708E0    8.260999554116E0    1.533455675356E1
    4.150000000000E0   2.838325389271E-2    3.012099715057E0    4.032938448858E0    8.049316917052E0    1.512273833486E1
    4.200000000000E0   3.328843597848E-2    2.987646157803E0    4.051474458756E0    7.852913668237E0    1.492532272077E1
    4.250000000000E0   3.846726627856E-2    2.963027123656E0    4.069039997208E0    7.670623874924E0    1.474115826207E1
    4.300000000000E0   4.389802181441E-2    2.938261849222E0    4.085652262170E0    7.501338526086E0    1.456915065929E1
    4.350000000000E0   4.956011166242E-2    2.913368816917E0    4.101328462405E0    7.344016591633E0    1.440827398262E1
    4.400000000000E0   5.543401621231E-2    2.888365796436E0    4.116085800248E0    7.197689902549E0    1.425757551545E1
    4.450000000000E0   6.150123098001E-2    2.863269884816E0    4.129941456238E0    7.061463979797E0    1.411617655183E1
    4.500000000000E0   6.774421345442E-2    2.838097544932E0    4.142912573989E0    6.934516286715E0    1.398327061909E1
    4.550000000000E0   7.414633316494E-2    2.812864642338E0    4.155016246791E0    6.816092919371E0    1.385812014166E1
    4.600000000000E0   8.069182529449E-2    2.787586480359E0    4.166269504797E0    6.705504420951E0    1.374005223140E1
    4.650000000000E0   8.736574599058E-2    2.762277833877E0    4.176689303316E0    6.602121181543E0    1.362845406473E1
    4.700000000000E0   9.415393124133E-2    2.736952981036E0    4.186292511925E0    6.505368725879E0    1.352276815008E1
    4.750000000000E0   1.010429577728E-1    2.711625733440E0    4.195095904439E0    6.414723081679E0    1.342248767733E1
    4.800000000000E0   1.080201060519E-1    2.686309464314E0    4.203116149523E0    6.329706347041E0    1.332715206693E1
    4.850000000000E0   1.150733255919E-1    2.661017135269E0    4.210369802137E0    6.249882524694E0    1.323634278769E1
    4.900000000000E0   1.221912024975E-1    2.635761320716E0    4.216873295391E0    6.174853656706E0    1.314967947531E1
    4.950000000000E0   1.293629277792E-1    2.610554230968E0    4.222642933449E0    6.104256269757E0    1.306681636195E1
    5.000000000000E0   1.365782685427E-1    2.585407733138E0    4.227694884835E0    6.037758129026E0    1.298743901554E1
    5.050000000000E0   1.438275400289E-1    2.560333370223E0    4.232045176032E0    5.975055286716E0    1.291126137300E1
    5.100000000000E0   1.511015794697E-1    2.535342378406E0    4.235709685880E0    5.915869409698E0    1.283802305345E1
    5.150000000000E0   1.583917215930E-1    2.510445702428E0    4.238704140563E0    5.859945364359E0    1.276748692894E1
    5.200000000000E0   1.656897743737E-1    2.485654009235E0    4.241044108567E0    5.807049038467E0    1.269943693064E1
    5.250000000000E0   1.729879972392E-1    2.460977699618E0    4.242744996688E0    5.756965379712E0    1.263367607326E1
    5.300000000000E0   1.802790797999E-1    2.436426918389E0    4.243822046000E0    5.709496629037E0    1.257002467323E1
    5.350000000000E0   1.875561216249E-1    2.412011562391E0    4.244290328366E0    5.664460731844E0    1.250831874423E1
    5.400000000000E0   1.948126132704E-1    2.387741287289E0    4.244164743263E0    5.621689907532E0    1.244840855136E1
    5.450000000000E0   2.020424185243E-1    2.363625512461E0    4.243460014839E0    5.581029362367E0    1.239015730819E1
    5.500000000000E0   2.092397564680E-1    2.339673424412E0    4.242190689574E0    5.542336130576E0    1.233344000103E1
    5.550000000000E0   2.163991856432E-1    2.315893978932E0    4.240371134012E0    5.505478030362E0    1.227814232895E1
    5.600000000000E0   2.235155882191E-1    2.292295901549E0    4.238015532718E0    5.470332722510E0    1.222415974500E1
    5.650000000000E0   2.305841552633E-1    2.268887687032E0    4.235137886697E0    5.436786861524E0    1.217139659052E1
    5.700000000000E0   2.376003730018E-1    2.245677597577E0    4.231752011822E0    5.404735329028E0    1.211976531143E1
    5.750000000000E0   2.445600086394E-1    2.222673660058E0    4.227871537670E0    5.374080540722E0    1.206918574709E1
    5.800000000000E0   2.514590981605E-1    2.199883662276E0    4.223509906522E0    5.344731819902E0    1.201958448686E1
    5.850000000000E0   2.582939336778E-1    2.177315148516E0    4.218680372667E0    5.316604829885E0    1.197089428474E1
    5.900000000000E0   2.650610523243E-1    2.154975414330E0    4.213396001461E0    5.289621059747E0    1.192305352786E1
    5.950000000000E0   2.717572246025E-1    2.132871500812E0    4.207669669267E0    5.263707357678E0    1.187600575236E1
    6.000000000000E0   2.783794444267E-1    2.111010188530E0    4.201514062845E0    5.238795506927E0    1.182969920273E1
    6.050000000000E0   2.849249183098E-1    2.089397991136E0    4.194941679373E0    5.214821840672E0    1.178408642949E1
    6.100000000000E0   2.913910561775E-1    2.068041148806E0    4.187964826536E0    5.191726890954E0    1.173912392247E1
    6.150000000000E0   2.977754619261E-1    2.046945621645E0    4.180595622534E0    5.169455069073E0    1.169477177518E1
    6.200000000000E0   3.040759248142E-1    2.026117083217E0    4.172845996477E0    5.147954374146E0    1.165099337865E1
    6.250000000000E0   3.102904107679E-1    2.005560914227E0    4.164727688671E0    5.127176126681E0    1.160775514035E1
    6.300000000000E0   3.164170548747E-1    1.985282196594E0    4.156252251164E0    5.107074725159E0    1.156502622779E1
    6.350000000000E0   3.224541530355E-1    1.965285707768E0    4.147431048477E0    5.087607423285E0    1.152277833257E1
    6.400000000000E0   3.284001547103E-1    1.945575915788E0    4.138275258134E0    5.068734126097E0    1.148098545473E1
    6.450000000000E0   3.342536564497E-1    1.926156974650E0    4.128795871549E0    5.050417202537E0    1.143962370519E1
    6.500000000000E0   3.400133944212E-1    1.907032720509E0    4.119003694897E0    5.032621314029E0    1.139867112386E1
    6.550000000000E0   3.456782386838E-1    1.888206668508E0    4.108909350092E0    5.015313256281E0    1.135810751357E1
    6.600000000000E0   3.512471862944E-1    1.869682010436E0    4.098523275726E0    4.998461814357E0    1.131791428681E1
    6.650000000000E0   3.567193558864E-1    1.851461613107E0    4.087855728315E0    4.982037628986E0    1.127807432629E1
    6.700000000000E0   3.620939817434E-1    1.833548017704E0    4.076916783354E0    4.966013073077E0    1.123857185588E1
    6.750000000000E0   3.673704085972E-1    1.815943439760E0    4.065716336540E0    4.950362138369E0    1.119939232327E1
    6.800000000000E0   3.725480861754E-1    1.798649770250E0    4.054264105076E0    4.935060330439E0    1.116052229194E1
    6.850000000000E0   3.776265646933E-1    1.781668577485E0    4.042569628976E0    4.920084571363E0    1.112194934252E1
    6.900000000000E0   3.826054895069E-1    1.765001109641E0    4.030642272406E0    4.905413110460E0    1.108366198201E1
    6.950000000000E0   3.874845966155E-1    1.748648298589E0    4.018491225186E0    4.891025440757E0    1.104564956115E1
    7.000000000000E0   3.922637088366E-1    1.732610764121E0    4.006125504057E0    4.876902222186E0    1.100790219920E1
    7.050000000000E0   3.969427308717E-1    1.716888819134E0    3.993553954347E0    4.863025210052E0    1.097041071440E1
    7.100000000000E0   4.015216459874E-1    1.701482475678E0    3.980785251376E0    4.849377188764E0    1.093316656181E1
    7.150000000000E0   4.060005115013E-1    1.686391451516E0    3.967827901988E0    4.835941910046E0    1.089616177505E1
    7.200000000000E0   4.103794552889E-1    1.671615177490E0    3.954690246176E0    4.822704035740E0    1.085938891470E1
    7.250000000000E0   4.146586724950E-1    1.657152805541E0    3.941380458650E0    4.809649084401E0    1.082284102109E1
    7.300000000000E0   4.188384217980E-1    1.643003217070E0    3.927906550391E0    4.796763381499E0    1.078651157076E1
    7.350000000000E0   4.229190221604E-1    1.629165032059E0    3.914276370361E0    4.784034013184E0    1.075039443776E1
    7.400000000000E0   4.269008500653E-1    1.615636618537E0    3.900497607084E0    4.771448782935E0    1.071448385862E1
    7.450000000000E0   4.307843359859E-1    1.602416102312E0    3.886577790308E0    4.758996171230E0    1.067877439984E1
    7.500000000000E0   4.345699615570E-1    1.589501377407E0    3.872524292754E0    4.746665297749E0    1.064326092947E1
    7.550000000000E0   4.382582572912E-1    1.576890116243E0    3.858344331661E0    4.734445886157E0    1.060793859135E1
    7.600000000000E0   4.418497992806E-1    1.564579780510E0    3.844044970587E0    4.722328230973E0    1.057280278135E1
    7.650000000000E0   4.453452072481E-1    1.552567631916E0    3.829633121068E0    4.710303166732E0    1.053784912696E1
    7.700000000000E0   4.487451415746E-1    1.540850743168E0    3.815115544271E0    4.698362038836E0    1.050307346785E1
    7.750000000000E0   4.520503009984E-1    1.529426008919E0    3.800498852799E0    4.686496676488E0    1.046847183920E1
    7.800000000000E0   4.552614208176E-1    1.518290156907E0    3.785789512320E0    4.674699367081E0    1.043404045713E1
    7.850000000000E0   4.583792702151E-1    1.507439758739E0    3.770993843285E0    4.662962832251E0    1.039977570449E1
    7.900000000000E0   4.614046503158E-1    1.496871240891E0    3.756118022669E0    4.651280205333E0    1.036567411921E1
    7.950000000000E0   4.643383925314E-1    1.486580895470E0    3.741168085653E0    4.639645010125E0    1.033173238378E1
    8.000000000000E0   4.671813559808E-1    1.476564890692E0    3.726149927333E0    4.628051140957E0    1.029794731496E1
    8.050000000000E0   4.699344261231E-1    1.466819281462E0    3.711069304446E0    4.616492843938E0    1.026431585597E1
    8.100000000000E0   4.725985130190E-1    1.457340019418E0    3.695931837036E0    4.604964699180E0    1.023083506865E1
    8.150000000000E0   4.751745492673E-1    1.448122962935E0    3.680743010178E0    4.593461604163E0    1.019750212654E1
