#             E [au]      sigma_0 [au^2]      sigma_1 [au^2]      sigma_2 [au^2]      sigma_3 [au^2]    sigma_tot [au^2]
    0.000000000000E0                 NaN                 NaN                 NaN                 NaN                 NaN
   5.000000000000E-2    1.138880321518E2   2.649419314647E-2   5.455203723854E-5  3.440453007501E-11    1.139145808970E2
   1.000000000000E-1    6.204488585739E1   9.497223835657E-2   7.364059870992E-4   2.203174160547E-9    6.214059450393E1
   1.500000000000E-1    4.188711968149E1   1.927228297190E-1   3.162040602771E-3   2.512140875117E-8    4.208300457693E1
   2.000000000000E-1    3.116660216134E1   3.107038672893E-1   8.520716462403E-3   1.413606590559E-7    3.148582688645E1
   2.500000000000E-1    2.451452542135E1   4.423593722782E-1   1.782719221435E-2   5.403255728800E-7    2.497471252616E1
   3.000000000000E-1    1.998586703179E1   5.828633360138E-1   3.183576307040E-2   1.617464804291E-6    2.060056774834E1
   3.500000000000E-1    1.670538769600E1   7.286211566291E-1   5.103490754004E-2   4.091124177583E-6    1.748504785129E1
   4.000000000000E-1    1.422102422571E1   8.769319550927E-1   7.567787469212E-2   9.148861388552E-6    1.517364320436E1
   4.500000000000E-1    1.227569639391E1    1.025754432536E0   1.058256057100E-1   1.862563092445E-5    1.340729505779E1
   5.000000000000E-1    1.071240078273E1    1.173541144773E0   1.413902901919E-1   3.521692870726E-5    1.202736743462E1
   5.500000000000E-1    9.429821256703E0    1.319119049546E0   1.821743623844E-1   6.273077489171E-5    1.093117739941E1
   6.000000000000E-1    8.359641766688E0    1.461602005252E0   2.279031506900E-1   1.063833309862E-4    1.004925330596E1
   6.500000000000E-1    7.454115312171E0    1.600325744846E0   2.782510749078E-1   1.731440193755E-4    9.332865275944E0
   7.000000000000E-1    6.678858859503E0    1.734798924172E0   3.328620311262E-1   2.721372714014E-4    8.746791952073E0
   7.500000000000E-1    6.008478853253E0    1.864665844853E0   3.913648630257E-1   4.151095120791E-4    8.264924670643E0
   8.000000000000E-1    5.423809700193E0    1.989677769308E0   4.533848371708E-1   6.169717418543E-4    7.867489278414E0
   8.500000000000E-1    4.910111515280E0    2.109670641810E0   5.185519521640E-1   8.964301573151E-4    7.539230539411E0
   9.000000000000E-1    4.455859629645E0    2.224547639169E0   5.865067867827E-1   1.276719731191E-3    7.268190775329E0
   9.500000000000E-1    4.051910959883E0    2.334265399095E0   6.569044645426E-1   1.786458631558E-3    7.044867282153E0
    1.000000000000E0    3.690917071710E0    2.438823080031E0   7.294171945861E-1   2.460644917554E-3    6.861617991245E0
    1.050000000000E0    3.366902775220E0    2.538253616218E0   8.037357517615E-1   3.341821181235E-3    6.712233964381E0
    1.100000000000E0    3.074958239053E0    2.632616691233E0   8.795701750153E-1   4.481437992130E-3    6.591626543293E0
    1.150000000000E0    2.811010454480E0    2.721993063799E0   9.566499004190E-1   5.941453103334E-3    6.495594871801E0
    1.200000000000E0    2.571651182283E0    2.806479970671E0    1.034723491410E0   7.796210920888E-3    6.420650855285E0
    1.250000000000E0    2.354005741825E0    2.886187384347E0    1.113558090967E0   1.013465572653E-2    6.363885872865E0
    1.300000000000E0    2.155631742874E0    2.961234962661E0    1.192938687843E0   1.306294307729E-2    6.322868336454E0
    1.350000000000E0    1.974440092397E0    3.031749553525E0    1.272667265820E0   1.670752703961E-2    6.295564438782E0
    1.400000000000E0    1.808632754977E0    3.097863152148E0    1.352561886991E0   2.121881693695E-2    6.280276611052E0
    1.450000000000E0    1.656653254089E0    3.159711225984E0    1.432455746290E0   2.677551663705E-2    6.275595743000E0
    1.500000000000E0    1.517146986242E0    3.217431341219E0    1.512196222970E0   3.358978283022E-2    6.280364333261E0
    1.550000000000E0    1.388929133499E0    3.271162037747E0    1.591643948834E0   4.191336692295E-2    6.293648487003E0
    1.600000000000E0    1.270958532989E0    3.321041907182E0    1.670671905187E0   5.204493898706E-2    6.314717284346E0
    1.650000000000E0    1.162316259031E0    3.367208841056E0    1.749164557604E0   6.433883259905E-2    6.343028490290E0
    1.700000000000E0    1.062187940087E0    3.409799418059E0    1.827017033422E0   7.921549713525E-2    6.378219888703E0
    1.750000000000E0   9.698490804417E-1    3.448948408849E0    1.904134344466E0   9.717399989799E-2    6.420105833654E0
    1.800000000000E0   8.846528071278E-1    3.484788376452E0    1.980430656593E0   1.188069846586E-1    6.468678824832E0
    1.850000000000E0   8.060195784867E-1    3.517449358897E0    2.055828605902E0   1.448185652677E-1    6.524116108554E0
    1.900000000000E0   7.334285052236E-1    3.547058618879E0    2.130258660402E0   1.760457101559E-1    6.586791494661E0
    1.950000000000E0   6.664099914741E-1    3.573740449853E0    2.203658525036E0   2.134837517324E-1    6.657292718096E0
    2.000000000000E0   6.045394652149E-1    3.597616030194E0    2.275972589716E0   2.583167234716E-1    6.736444808597E0
    2.050000000000E0   5.474320208205E-1    3.618803315688E0    2.347151416340E0   3.119532699264E-1    6.825340022774E0
    2.100000000000E0   4.947378150712E-1    3.637416966533E0    2.417151263262E0   3.760688611432E-1    6.925374906010E0
    2.150000000000E0   4.461380960987E-1    3.653568301270E0    2.485933645177E0   4.526549256976E-1    7.038294968244E0
    2.200000000000E0   4.013417725512E-1    3.667365274251E0    2.553464925634E0   5.440752168456E-1    7.166247189281E0
    2.250000000000E0   3.600824288949E-1    3.678912471677E0    2.619715940776E0   6.531291233595E-1    7.311839964708E0
    2.300000000000E0   3.221157265584E-1    3.688311125292E0    2.684661649763E0   7.831205528955E-1    7.478209054509E0
    2.350000000000E0   2.872171342891E-1    3.695659137236E0    2.748280813512E0   9.379291758280E-1    7.669086260864E0
    2.400000000000E0   2.551799330104E-1    3.701051118058E0    2.810555696040E0    1.122077860127E0    7.888864607235E0
    2.450000000000E0   2.258134667032E-1    3.704578431803E0    2.871471789488E0    1.340785560925E0    8.142649248919E0
    2.500000000000E0   1.989415953767E-1    3.706329249970E0    2.931017559618E0    1.599988188453E0    8.436276593417E0
    2.550000000000E0   1.744013283799E-1    3.706388610666E0    2.989184210215E0    1.906300555741E0    8.776274705002E0
    2.600000000000E0   1.520416131832E-1    3.704838482462E0    3.045965465437E0    2.266880260672E0    9.169725821754E0
    2.650000000000E0   1.317222578730E-1    3.701757832027E0    3.101357368780E0    2.689140184073E0    9.623977642754E0
    2.700000000000E0   1.133129695828E-1    3.697222695132E0    3.155358096028E0    3.180243271725E0    1.014613703247E1
    2.750000000000E0   9.669249859198E-2    3.691306248817E0    3.207967783751E0    3.746308292880E0    1.074227482404E1
    2.800000000000E0   8.174786915488E-2    3.684078885919E0    3.259188369441E0    4.391270674185E0    1.141628579870E1
    2.850000000000E0   6.837369036260E-2    3.675608290246E0    3.309023443758E0    5.115396128426E0    1.216840155279E1
    2.900000000000E0   5.647153742030E-2    3.665959512127E0    3.357478113651E0    5.913555033925E0    1.299346419712E1
    2.950000000000E0   4.594939188491E-2    3.655195044443E0    3.404558875907E0    6.773537532104E0    1.387924084434E1
    3.000000000000E0   3.672113892576E-2    3.643374898420E0    3.450273499388E0    7.674890928198E0    1.480526046493E1
    3.050000000000E0   2.870611051794E-2    3.630556679028E0    3.494630916359E0    8.588900375577E0    1.574279408148E1
    3.100000000000E0   2.182867225005E-2    3.616795659942E0    3.537641121404E0    9.480268979528E0    1.665653443312E1
    3.150000000000E0   1.601784853558E-2    3.602144857340E0    3.579315078144E0    1.031066837232E1    1.750814615634E1
    3.200000000000E0   1.120698097256E-2    3.586655103350E0    3.619664632006E0    1.104366641061E1    1.826119312694E1
    3.250000000000E0   7.333417446434E-3    3.570375117994E0    3.658702429656E0    1.164987218532E1    1.888628315042E1
    3.300000000000E0   4.338228808223E-3    3.553351580499E0    3.696441844440E0    1.211087102681E1    1.936500268056E1
    3.350000000000E0   2.165949253474E-3    3.535629198891E0    3.732896906705E0    1.242088566943E1    1.969157772428E1
    3.400000000000E0   7.643390292120E-4    3.517250778986E0    3.768082239591E0    1.258593208276E1    1.987202944036E1
    3.450000000000E0   8.416692459922E-5    3.498257291528E0    3.802012999044E0    1.262108018827E1    1.992143464576E1
    3.500000000000E0   7.901032781102E-5    3.478687938378E0    3.834704817764E0    1.254687044828E1    1.986034221475E1
    3.550000000000E0   7.050716317575E-4    3.458580217545E0    3.866173754204E0    1.238587882964E1    1.971133787302E1
    3.600000000000E0   1.921009020827E-3    3.437969986389E0    3.896436244033E0    1.216005188060E1    1.949637912004E1
    3.650000000000E0   3.687780597468E-3    3.416891524001E0    3.925509055916E0    1.188901417066E1    1.923510253117E1
    3.700000000000E0   5.968500307450E-3    3.395377592018E0    3.953409249828E0    1.158925232693E1    1.894400766909E1
    3.750000000000E0   8.728304941729E-3    3.373459494222E0    3.980154138577E0    1.127394338259E1    1.863628532033E1
    3.800000000000E0   1.193423105714E-2    3.351167134662E0    4.005761251939E0    1.095318020153E1    1.832204281919E1
    3.850000000000E0   1.555510066867E-2    3.328529074864E0    4.030248303371E0    1.063439395603E1    1.800872643493E1
    3.900000000000E0   1.956141548373E-2    3.305572589323E0    4.053633159492E0    1.032283753417E1    1.770160469847E1
    3.950000000000E0   2.392525867442E-2    3.282323719985E0    4.075933810804E0    1.002205021203E1    1.740423300149E1
    4.000000000000E0   2.862020309044E-2    3.258807329461E0    4.097168345535E0    9.734264819630E0    1.711886069772E1
    4.050000000000E0   3.362122676541E-2    3.235047152784E0    4.117354924383E0    9.460744434341E0    1.684676773827E1
    4.100000000000E0   3.890463297548E-2    3.211065848196E0    4.136511757844E0    9.202049966796E0    1.658853220581E1
    4.150000000000E0   4.444797668802E-2    3.186885046438E0    4.154657084710E0    8.958246751056E0    1.634423685889E1
    4.200000000000E0   5.022999537361E-2    3.162525399124E0    4.171809152524E0    8.729060508956E0    1.611362505598E1
    4.250000000000E0   5.623054445187E-2    3.138006625402E0    4.187986198808E0    8.513992947875E0    1.589621631654E1
    4.300000000000E0   6.243053688579E-2    3.113347557833E0    4.203206434438E0    8.312406051873E0    1.569139058103E1
    4.350000000000E0   6.881188693947E-2    3.088566186739E0    4.217488027368E0    8.123582582715E0    1.549844868376E1
    4.400000000000E0   7.535745673540E-2    3.063679703420E0    4.230849088478E0    7.946768783044E0    1.531665503168E1
    4.450000000000E0   8.205100687695E-2    3.038704542042E0    4.243307657807E0    7.781203930854E0    1.514526713758E1
    4.500000000000E0   8.887714967832E-2    3.013656420365E0    4.254881692271E0    7.626140285365E0    1.498355554768E1
    4.550000000000E0   9.582130530377E-2    2.988550378823E0    4.265589053789E0    7.480856083291E0    1.483081682121E1
    4.600000000000E0   1.028696608841E-1    2.963400818782E0    4.275447498849E0    7.344663559657E0    1.468638153817E1
    4.650000000000E0   1.100091311762E-1    2.938221539105E0    4.284474668483E0    7.216913448128E0    1.454961878689E1
    4.700000000000E0   1.172273224122E-1    2.913025771353E0    4.292688079462E0    7.096997024961E0    1.441993819819E1
    4.750000000000E0   1.245124977777E-1    2.887826213972E0    4.300105115893E0    6.984346468146E0    1.429679029579E1
    4.800000000000E0   1.318535449268E-1    2.862635064409E0    4.306743021495E0    6.878434090146E0    1.417966572098E1
    4.850000000000E0   1.392399452535E-1    2.837464050443E0    4.312618892589E0    6.778770843446E0    1.406809373173E1
    4.900000000000E0   1.466617453593E-1    2.812324459640E0    4.317749671721E0    6.684904381897E0    1.396164025862E1
    4.950000000000E0   1.541095290726E-1    2.787227167511E0    4.322152141800E0    6.596416878877E0    1.385990571726E1
    5.000000000000E0   1.615743920006E-1    2.762182664036E0    4.325842920904E0    6.512922738980E0    1.376252271592E1
    5.050000000000E0   1.690479169152E-1    2.737201078701E0    4.328838457260E0    6.434066299204E0    1.366915375208E1
    5.100000000000E0   1.765221505345E-1    2.712292204008E0    4.331155024995E0    6.359519581720E0    1.357948896126E1
    5.150000000000E0   1.839895819271E-1    2.687465517299E0    4.332808720061E0    6.288980137647E0    1.349324395693E1
    5.200000000000E0   1.914431210966E-1    2.662730201197E0    4.333815456727E0    6.222169007157E0    1.341015778618E1
    5.250000000000E0   1.988760796423E-1    2.638095162214E0    4.334190964443E0    6.158828808226E0    1.332999101453E1
    5.300000000000E0   2.062821519396E-1    2.613569047958E0    4.333950785235E0    6.098721958611E0    1.325252394374E1
    5.350000000000E0   2.136553973054E-1    2.589160262615E0    4.333110270639E0    6.041629032154E0    1.317755496271E1
    5.400000000000E0   2.209902230487E-1    2.564876980870E0    4.331684580248E0    5.987347244507E0    1.310489902867E1
    5.450000000000E0   2.282813687970E-1    2.540727160471E0    4.329688679183E0    5.935689062948E0    1.303438627140E1
    5.500000000000E0   2.355238905965E-1    2.516718552788E0    4.327137336846E0    5.886480933770E0    1.296586071400E1
    5.550000000000E0   2.427131468206E-1    2.492858712445E0    4.324045125545E0    5.839562118212E0    1.289917910302E1
    5.600000000000E0   2.498447841875E-1    2.469155004980E0    4.320426419260E0    5.794783629978E0    1.283420983840E1
    5.650000000000E0   2.569147245480E-1    2.445614613266E0    4.316295392755E0    5.752007266179E0    1.277083199675E1
    5.700000000000E0   2.639191527250E-1    2.422244542666E0    4.311666020975E0    5.711104723299E0    1.270893443967E1
    5.750000000000E0   2.708545039461E-1    2.399051624688E0    4.306552078354E0    5.671956791790E0    1.264841499878E1
    5.800000000000E0   2.777174529073E-1    2.376042519447E0    4.300967138720E0    5.634452622084E0    1.258917973316E1
    5.850000000000E0   2.845049025333E-1    2.353223717085E0    4.294924575147E0    5.598489055267E0    1.253114225003E1
    5.900000000000E0   2.912139742081E-1    2.330601537771E0    4.288437559743E0    5.563970013346E0    1.247422308507E1
    5.950000000000E0   2.978419970613E-1    2.308182131048E0    4.281519064076E0    5.530805942716E0    1.241834913490E1
    6.000000000000E0   3.043864994782E-1    2.285971474043E0    4.274181859273E0    5.498913306589E0    1.236345313938E1
    6.050000000000E0   3.108451991677E-1    2.263975368877E0    4.266438516565E0    5.468214121529E0    1.230947320614E1
    6.100000000000E0   3.172159950627E-1    2.242199439447E0    4.258301407833E0    5.438635534360E0    1.225635237670E1
    6.150000000000E0   3.234969589388E-1    2.220649127444E0    4.249782706299E0    5.410109435019E0    1.220403822770E1
    6.200000000000E0   3.296863276256E-1    2.199329687900E0    4.240894387179E0    5.382572102793E0    1.215248250550E1
    6.250000000000E0   3.357824951817E-1    2.178246184366E0    4.231648228715E0    5.355963882378E0    1.210164079064E1
    6.300000000000E0   3.417840063946E-1    2.157403483662E0    4.222055812953E0    5.330228886960E0    1.205147218997E1
    6.350000000000E0   3.476895490846E-1    2.136806250487E0    4.212128526941E0    5.305314726363E0    1.200193905287E1
    6.400000000000E0   3.534979477458E-1    2.116458941946E0    4.201877563817E0    5.281172257139E0    1.195300671065E1
    6.450000000000E0   3.592081577184E-1    2.096365801901E0    4.191313923915E0    5.257755353710E0    1.190464323724E1
    6.500000000000E0   3.648192583557E-1    2.076530855499E0    4.180448416194E0    5.235020697344E0    1.185681922739E1
    6.550000000000E0   3.703304481415E-1    2.056957903961E0    4.169291659356E0    5.212927582575E0    1.180950759403E1
    6.600000000000E0   3.757410383028E-1    2.037650519330E0    4.157854083366E0    5.191437738713E0    1.176268337971E1
    6.650000000000E0   3.810504479880E-1    2.018612039855E0    4.146145930848E0    5.170515165567E0    1.171632358426E1
    6.700000000000E0   3.862581990541E-1    1.999845565499E0    4.134177258622E0    5.150125981713E0    1.167040700489E1
    6.750000000000E0   3.913639112448E-1    1.981353954070E0    4.121957939106E0    5.130238284875E0    1.162491408930E1
    6.800000000000E0   3.963672972945E-1    1.963139817802E0    4.109497661964E0    5.110822022399E0    1.157982679946E1
    6.850000000000E0   4.012681590329E-1    1.945205520456E0    4.096805935727E0    5.091848872024E0    1.153512848724E1
    6.900000000000E0   4.060663823971E-1    1.927553175029E0    4.083892089328E0    5.073292131265E0    1.149080377802E1
    6.950000000000E0   4.107619335372E-1    1.910184642225E0    4.070765273947E0    5.055126614991E0    1.144683846470E1
    7.000000000000E0   4.153548552560E-1    1.893101529330E0    4.057434464458E0    5.037328560745E0    1.140321940979E1
    7.050000000000E0   4.198452625446E-1    1.876305189910E0    4.043908461398E0    5.019875540656E0    1.135993445451E1
    7.100000000000E0   4.242333397614E-1    1.859796724265E0    4.030195892519E0    5.002746379744E0    1.131697233629E1
    7.150000000000E0   4.285193363935E-1    1.843576980338E0    4.016305214621E0    4.985921080123E0    1.127432261148E1
    7.200000000000E0   4.327035639681E-1    1.827646555524E0    4.002244715345E0    4.969380750376E0    1.123197558521E1
    7.250000000000E0   4.367863931929E-1    1.812005798986E0    3.988022514932E0    4.953107539983E0    1.118992224709E1
    7.300000000000E0   4.407682503344E-1    1.796654814703E0    3.973646568013E0    4.937084578243E0    1.114815421129E1
    7.350000000000E0   4.446496145327E-1    1.781593465138E0    3.959124665460E0    4.921295917234E0    1.110666366236E1
    7.400000000000E0   4.484310152182E-1    1.766821375494E0    3.944464436154E0    4.905726478633E0    1.106544330550E1
    7.450000000000E0   4.521130288713E-1    1.752337938482E0    3.929673348860E0    4.890362004367E0    1.102448632058E1
    7.500000000000E0   4.556962765886E-1    1.738142319781E0    3.914758714040E0    4.875189010103E0    1.098378632051E1
    7.550000000000E0   4.591814219232E-1    1.724233463821E0    3.899727685666E0    4.860194742055E0    1.094333731347E1
    7.600000000000E0   4.625691678811E-1    1.710610100140E0    3.884587263126E0    4.845367136554E0    1.090313366770E1
    7.650000000000E0   4.658602553008E-1    1.697270750092E0    3.869344292957E0    4.830694782051E0    1.086317008040E1
    7.700000000000E0   4.690554600268E-1    1.684213733968E0    3.854005470770E0    4.816166883773E0    1.082344154854E1
    7.750000000000E0   4.721555909283E-1    1.671437178466E0    3.838577343059E0    4.801773230353E0    1.078394334281E1
    7.800000000000E0   4.751614882446E-1    1.658939024390E0    3.823066309029E0    4.787504162708E0    1.074467098437E1
    7.850000000000E0   4.780740210740E-1    1.646717034570E0    3.807478622406E0    4.773350544750E0    1.070562022280E1
    7.900000000000E0   4.808940857801E-1    1.634768802140E0    3.791820393290E0    4.759303735948E0    1.066678701716E1
    7.950000000000E0   4.836226044154E-1    1.623091758770E0    3.776097589966E0    4.745355565322E0    1.062816751847E1
    8.000000000000E0   4.862605223499E-1    1.611683183130E0    3.760316040702E0    4.731498307364E0    1.058975805355E1
    8.050000000000E0   4.888088071427E-1    1.600540209412E0    3.744481435567E0    4.717724659119E0    1.055155511124E1
    8.100000000000E0   4.912684468845E-1    1.589659835879E0    3.728599328210E0    4.704027718564E0    1.051355532954E1
    8.150000000000E0   4.936404482939E-1    1.579038933408E0    3.712675137651E0    4.690400964484E0    1.047575548384E1
