#             e [au]            f [a.u.]
   -5.273642520075E0  -9.999954377625E-1
   -5.268363448483E0  -9.999954079954E-1
   -5.263084376891E0  -9.999953780191E-1
   -5.257805305300E0  -9.999953478319E-1
   -5.252526233708E0  -9.999953174323E-1
   -5.247247162116E0  -9.999952868185E-1
   -5.241968090525E0  -9.999952559891E-1
   -5.236689018933E0  -9.999952249423E-1
   -5.231409947341E0  -9.999951936766E-1
   -5.226130875750E0  -9.999951621902E-1
   -5.220851804158E0  -9.999951304814E-1
   -5.215572732566E0  -9.999950985487E-1
   -5.210293660975E0  -9.999950663902E-1
   -5.205014589383E0  -9.999950340043E-1
   -5.199735517791E0  -9.999950013891E-1
   -5.194456446200E0  -9.999949685431E-1
   -5.189177374608E0  -9.999949354644E-1
   -5.183898303016E0  -9.999949021512E-1
   -5.178619231425E0  -9.999948686017E-1
   -5.173340159833E0  -9.999948348142E-1
   -5.168061088241E0  -9.999948007868E-1
   -5.162782016650E0  -9.999947665177E-1
   -5.157502945058E0  -9.999947320050E-1
   -5.152223873466E0  -9.999946972468E-1
   -5.146944801875E0  -9.999946622414E-1
   -5.141665730283E0  -9.999946269867E-1
   -5.136386658691E0  -9.999945914809E-1
   -5.131107587100E0  -9.999945557220E-1
   -5.125828515508E0  -9.999945197082E-1
   -5.120549443916E0  -9.999944834373E-1
   -5.115270372325E0  -9.999944469076E-1
   -5.109991300733E0  -9.999944101169E-1
   -5.104712229141E0  -9.999943730632E-1
   -5.099433157550E0  -9.999943357446E-1
   -5.094154085958E0  -9.999942981590E-1
   -5.088875014366E0  -9.999942603043E-1
   -5.083595942775E0  -9.999942221784E-1
   -5.078316871183E0  -9.999941837793E-1
   -5.073037799591E0  -9.999941451049E-1
   -5.067758728000E0  -9.999941061529E-1
   -5.062479656408E0  -9.999940669213E-1
   -5.057200584816E0  -9.999940274080E-1
   -5.051921513225E0  -9.999939876106E-1
   -5.046642441633E0  -9.999939475270E-1
   -5.041363370041E0  -9.999939071550E-1
   -5.036084298450E0  -9.999938664924E-1
   -5.030805226858E0  -9.999938255369E-1
   -5.025526155266E0  -9.999937842862E-1
   -5.020247083675E0  -9.999937427380E-1
   -5.014968012083E0  -9.999937008901E-1
   -5.009688940491E0  -9.999936587400E-1
   -5.004409868900E0  -9.999936162854E-1
   -4.999130797308E0  -9.999935735240E-1
   -4.993851725716E0  -9.999935304533E-1
   -4.988572654125E0  -9.999934870710E-1
   -4.983293582533E0  -9.999934433746E-1
   -4.978014510941E0  -9.999933993616E-1
   -4.972735439350E0  -9.999933550296E-1
   -4.967456367758E0  -9.999933103761E-1
   -4.962177296166E0  -9.999932653985E-1
   -4.956898224575E0  -9.999932200944E-1
   -4.951619152983E0  -9.999931744611E-1
   -4.946340081391E0  -9.999931284961E-1
   -4.941061009800E0  -9.999930821968E-1
   -4.935781938208E0  -9.999930355606E-1
   -4.930502866616E0  -9.999929885847E-1
   -4.925223795025E0  -9.999929412666E-1
   -4.919944723433E0  -9.999928936036E-1
   -4.914665651841E0  -9.999928455928E-1
   -4.909386580250E0  -9.999927972317E-1
   -4.904107508658E0  -9.999927485174E-1
   -4.898828437066E0  -9.999926994471E-1
   -4.893549365475E0  -9.999926500181E-1
   -4.888270293883E0  -9.999926002274E-1
   -4.882991222291E0  -9.999925500723E-1
   -4.877712150700E0  -9.999924995499E-1
   -4.872433079108E0  -9.999924486572E-1
   -4.867154007516E0  -9.999923973913E-1
   -4.861874935925E0  -9.999923457494E-1
   -4.856595864333E0  -9.999922937283E-1
   -4.851316792741E0  -9.999922413250E-1
   -4.846037721150E0  -9.999921885367E-1
   -4.840758649558E0  -9.999921353601E-1
   -4.835479577966E0  -9.999920817922E-1
   -4.830200506375E0  -9.999920278299E-1
   -4.824921434783E0  -9.999919734701E-1
   -4.819642363191E0  -9.999919187095E-1
   -4.814363291600E0  -9.999918635451E-1
   -4.809084220008E0  -9.999918079735E-1
   -4.803805148416E0  -9.999917519916E-1
   -4.798526076825E0  -9.999916955960E-1
   -4.793247005233E0  -9.999916387834E-1
   -4.787967933641E0  -9.999915815506E-1
   -4.782688862050E0  -9.999915238942E-1
   -4.777409790458E0  -9.999914658107E-1
   -4.772130718866E0  -9.999914072968E-1
   -4.766851647275E0  -9.999913483489E-1
   -4.761572575683E0  -9.999912889637E-1
   -4.756293504091E0  -9.999912291376E-1
   -4.751014432500E0  -9.999911688671E-1
   -4.745735360908E0  -9.999911081486E-1
   -4.740456289316E0  -9.999910469785E-1
   -4.735177217725E0  -9.999909853532E-1
   -4.729898146133E0  -9.999909232690E-1
   -4.724619074541E0  -9.999908607221E-1
   -4.719340002950E0  -9.999907977090E-1
   -4.714060931358E0  -9.999907342258E-1
   -4.708781859766E0  -9.999906702688E-1
   -4.703502788175E0  -9.999906058340E-1
   -4.698223716583E0  -9.999905409177E-1
   -4.692944644991E0  -9.999904755160E-1
   -4.687665573400E0  -9.999904096249E-1
   -4.682386501808E0  -9.999903432404E-1
   -4.677107430216E0  -9.999902763586E-1
   -4.671828358625E0  -9.999902089755E-1
   -4.666549287033E0  -9.999901410869E-1
   -4.661270215441E0  -9.999900726888E-1
   -4.655991143850E0  -9.999900037771E-1
   -4.650712072258E0  -9.999899343475E-1
   -4.645433000666E0  -9.999898643958E-1
   -4.640153929075E0  -9.999897939179E-1
   -4.634874857483E0  -9.999897229094E-1
   -4.629595785891E0  -9.999896513660E-1
   -4.624316714300E0  -9.999895792833E-1
   -4.619037642708E0  -9.999895066569E-1
   -4.613758571116E0  -9.999894334824E-1
   -4.608479499525E0  -9.999893597554E-1
   -4.603200427933E0  -9.999892854712E-1
   -4.597921356341E0  -9.999892106254E-1
   -4.592642284750E0  -9.999891352133E-1
   -4.587363213158E0  -9.999890592304E-1
   -4.582084141566E0  -9.999889826718E-1
   -4.576805069975E0  -9.999889055330E-1
   -4.571525998383E0  -9.999888278091E-1
   -4.566246926791E0  -9.999887494954E-1
   -4.560967855200E0  -9.999886705869E-1
   -4.555688783608E0  -9.999885910789E-1
   -4.550409712016E0  -9.999885109663E-1
   -4.545130640425E0  -9.999884302442E-1
   -4.539851568833E0  -9.999883489076E-1
   -4.534572497241E0  -9.999882669514E-1
   -4.529293425650E0  -9.999881843705E-1
   -4.524014354058E0  -9.999881011596E-1
   -4.518735282466E0  -9.999880173138E-1
   -4.513456210875E0  -9.999879328276E-1
   -4.508177139283E0  -9.999878476957E-1
   -4.502898067691E0  -9.999877619129E-1
   -4.497618996100E0  -9.999876754738E-1
   -4.492339924508E0  -9.999875883728E-1
   -4.487060852916E0  -9.999875006045E-1
   -4.481781781325E0  -9.999874121634E-1
   -4.476502709733E0  -9.999873230439E-1
   -4.471223638141E0  -9.999872332403E-1
   -4.465944566550E0  -9.999871427470E-1
   -4.460665494958E0  -9.999870515582E-1
   -4.455386423366E0  -9.999869596680E-1
   -4.450107351775E0  -9.999868670708E-1
   -4.444828280183E0  -9.999867737605E-1
   -4.439549208591E0  -9.999866797312E-1
   -4.434270137000E0  -9.999865849770E-1
   -4.428991065408E0  -9.999864894917E-1
   -4.423711993816E0  -9.999863932692E-1
   -4.418432922225E0  -9.999862963034E-1
   -4.413153850633E0  -9.999861985880E-1
   -4.407874779041E0  -9.999861001168E-1
   -4.402595707450E0  -9.999860008834E-1
   -4.397316635858E0  -9.999859008814E-1
   -4.392037564266E0  -9.999858001043E-1
   -4.386758492675E0  -9.999856985458E-1
   -4.381479421083E0  -9.999855961991E-1
   -4.376200349491E0  -9.999854930576E-1
   -4.370921277900E0  -9.999853891147E-1
   -4.365642206308E0  -9.999852843636E-1
   -4.360363134716E0  -9.999851787974E-1
   -4.355084063125E0  -9.999850724094E-1
   -4.349804991533E0  -9.999849651925E-1
   -4.344525919941E0  -9.999848571397E-1
   -4.339246848350E0  -9.999847482441E-1
   -4.333967776758E0  -9.999846384983E-1
   -4.328688705166E0  -9.999845278954E-1
   -4.323409633575E0  -9.999844164279E-1
   -4.318130561983E0  -9.999843040885E-1
   -4.312851490391E0  -9.999841908699E-1
   -4.307572418800E0  -9.999840767646E-1
   -4.302293347208E0  -9.999839617650E-1
   -4.297014275616E0  -9.999838458635E-1
   -4.291735204025E0  -9.999837290525E-1
   -4.286456132433E0  -9.999836113242E-1
   -4.281177060841E0  -9.999834926708E-1
   -4.275897989250E0  -9.999833730843E-1
   -4.270618917658E0  -9.999832525569E-1
   -4.265339846066E0  -9.999831310805E-1
   -4.260060774475E0  -9.999830086470E-1
   -4.254781702883E0  -9.999828852482E-1
   -4.249502631291E0  -9.999827608758E-1
   -4.244223559700E0  -9.999826355215E-1
   -4.238944488108E0  -9.999825091768E-1
   -4.233665416516E0  -9.999823818333E-1
   -4.228386344925E0  -9.999822534824E-1
   -4.223107273333E0  -9.999821241155E-1
   -4.217828201741E0  -9.999819937237E-1
   -4.212549130150E0  -9.999818622984E-1
   -4.207270058558E0  -9.999817298305E-1
   -4.201990986966E0  -9.999815963111E-1
   -4.196711915375E0  -9.999814617312E-1
   -4.191432843783E0  -9.999813260815E-1
   -4.186153772191E0  -9.999811893529E-1
   -4.180874700600E0  -9.999810515360E-1
   -4.175595629008E0  -9.999809126214E-1
   -4.170316557416E0  -9.999807725996E-1
   -4.165037485825E0  -9.999806314610E-1
   -4.159758414233E0  -9.999804891960E-1
   -4.154479342641E0  -9.999803457947E-1
   -4.149200271050E0  -9.999802012473E-1
   -4.143921199458E0  -9.999800555439E-1
   -4.138642127866E0  -9.999799086743E-1
   -4.133363056275E0  -9.999797606285E-1
   -4.128083984683E0  -9.999796113962E-1
   -4.122804913091E0  -9.999794609671E-1
   -4.117525841500E0  -9.999793093307E-1
   -4.112246769908E0  -9.999791564765E-1
   -4.106967698316E0  -9.999790023939E-1
   -4.101688626725E0  -9.999788470721E-1
   -4.096409555133E0  -9.999786905003E-1
   -4.091130483541E0  -9.999785326676E-1
   -4.085851411950E0  -9.999783735629E-1
   -4.080572340358E0  -9.999782131750E-1
   -4.075293268766E0  -9.999780514927E-1
   -4.070014197175E0  -9.999778885047E-1
   -4.064735125583E0  -9.999777241995E-1
   -4.059456053991E0  -9.999775585654E-1
   -4.054176982400E0  -9.999773915909E-1
   -4.048897910808E0  -9.999772232640E-1
   -4.043618839216E0  -9.999770535729E-1
   -4.038339767625E0  -9.999768825056E-1
   -4.033060696033E0  -9.999767100499E-1
   -4.027781624441E0  -9.999765361935E-1
   -4.022502552850E0  -9.999763609241E-1
   -4.017223481258E0  -9.999761842292E-1
   -4.011944409666E0  -9.999760060961E-1
   -4.006665338075E0  -9.999758265121E-1
   -4.001386266483E0  -9.999756454644E-1
   -3.996107194891E0  -9.999754629399E-1
   -3.990828123300E0  -9.999752789256E-1
   -3.985549051708E0  -9.999750934082E-1
   -3.980269980116E0  -9.999749063743E-1
   -3.974990908525E0  -9.999747178104E-1
   -3.969711836933E0  -9.999745277030E-1
   -3.964432765341E0  -9.999743360383E-1
   -3.959153693750E0  -9.999741428023E-1
   -3.953874622158E0  -9.999739479810E-1
   -3.948595550566E0  -9.999737515604E-1
   -3.943316478975E0  -9.999735535260E-1
   -3.938037407383E0  -9.999733538634E-1
   -3.932758335791E0  -9.999731525582E-1
   -3.927479264200E0  -9.999729495954E-1
   -3.922200192608E0  -9.999727449603E-1
   -3.916921121016E0  -9.999725386379E-1
   -3.911642049425E0  -9.999723306129E-1
   -3.906362977833E0  -9.999721208702E-1
   -3.901083906241E0  -9.999719093942E-1
   -3.895804834650E0  -9.999716961694E-1
   -3.890525763058E0  -9.999714811799E-1
   -3.885246691466E0  -9.999712644098E-1
   -3.879967619875E0  -9.999710458432E-1
   -3.874688548283E0  -9.999708254637E-1
   -3.869409476691E0  -9.999706032549E-1
   -3.864130405100E0  -9.999703792004E-1
   -3.858851333508E0  -9.999701532834E-1
   -3.853572261916E0  -9.999699254871E-1
   -3.848293190325E0  -9.999696957943E-1
   -3.843014118733E0  -9.999694641878E-1
   -3.837735047141E0  -9.999692306504E-1
   -3.832455975550E0  -9.999689951644E-1
   -3.827176903958E0  -9.999687577121E-1
   -3.821897832366E0  -9.999685182756E-1
   -3.816618760775E0  -9.999682768368E-1
   -3.811339689183E0  -9.999680333775E-1
   -3.806060617591E0  -9.999677878792E-1
   -3.800781546000E0  -9.999675403233E-1
   -3.795502474408E0  -9.999672906910E-1
   -3.790223402816E0  -9.999670389632E-1
   -3.784944331225E0  -9.999667851208E-1
   -3.779665259633E0  -9.999665291445E-1
   -3.774386188041E0  -9.999662710145E-1
   -3.769107116450E0  -9.999660107113E-1
   -3.763828044858E0  -9.999657482147E-1
   -3.758548973266E0  -9.999654835047E-1
   -3.753269901675E0  -9.999652165608E-1
   -3.747990830083E0  -9.999649473626E-1
   -3.742711758491E0  -9.999646758891E-1
   -3.737432686900E0  -9.999644021195E-1
   -3.732153615308E0  -9.999641260324E-1
   -3.726874543716E0  -9.999638476066E-1
   -3.721595472125E0  -9.999635668204E-1
   -3.716316400533E0  -9.999632836519E-1
   -3.711037328941E0  -9.999629980791E-1
   -3.705758257350E0  -9.999627100796E-1
   -3.700479185758E0  -9.999624196310E-1
   -3.695200114166E0  -9.999621267105E-1
   -3.689921042575E0  -9.999618312952E-1
   -3.684641970983E0  -9.999615333617E-1
   -3.679362899391E0  -9.999612328868E-1
   -3.674083827800E0  -9.999609298467E-1
   -3.668804756208E0  -9.999606242175E-1
   -3.663525684616E0  -9.999603159749E-1
   -3.658246613025E0  -9.999600050947E-1
   -3.652967541433E0  -9.999596915522E-1
   -3.647688469841E0  -9.999593753224E-1
   -3.642409398250E0  -9.999590563801E-1
   -3.637130326658E0  -9.999587347000E-1
   -3.631851255066E0  -9.999584102564E-1
   -3.626572183475E0  -9.999580830233E-1
   -3.621293111883E0  -9.999577529744E-1
   -3.616014040291E0  -9.999574200834E-1
   -3.610734968700E0  -9.999570843235E-1
   -3.605455897108E0  -9.999567456677E-1
   -3.600176825516E0  -9.999564040885E-1
   -3.594897753925E0  -9.999560595585E-1
   -3.589618682333E0  -9.999557120498E-1
   -3.584339610741E0  -9.999553615342E-1
   -3.579060539150E0  -9.999550079833E-1
   -3.573781467558E0  -9.999546513683E-1
   -3.568502395966E0  -9.999542916602E-1
   -3.563223324375E0  -9.999539288296E-1
   -3.557944252783E0  -9.999535628469E-1
   -3.552665181191E0  -9.999531936822E-1
   -3.547386109600E0  -9.999528213051E-1
   -3.542107038008E0  -9.999524456851E-1
   -3.536827966416E0  -9.999520667914E-1
   -3.531548894825E0  -9.999516845926E-1
   -3.526269823233E0  -9.999512990572E-1
   -3.520990751641E0  -9.999509101535E-1
   -3.515711680050E0  -9.999505178490E-1
   -3.510432608458E0  -9.999501221114E-1
   -3.505153536866E0  -9.999497229077E-1
   -3.499874465275E0  -9.999493202048E-1
   -3.494595393683E0  -9.999489139689E-1
   -3.489316322091E0  -9.999485041663E-1
   -3.484037250500E0  -9.999480907626E-1
   -3.478758178908E0  -9.999476737231E-1
   -3.473479107316E0  -9.999472530129E-1
   -3.468200035725E0  -9.999468285966E-1
   -3.462920964133E0  -9.999464004385E-1
   -3.457641892541E0  -9.999459685023E-1
   -3.452362820950E0  -9.999455327517E-1
   -3.447083749358E0  -9.999450931496E-1
   -3.441804677766E0  -9.999446496589E-1
   -3.436525606175E0  -9.999442022418E-1
   -3.431246534583E0  -9.999437508603E-1
   -3.425967462991E0  -9.999432954758E-1
   -3.420688391400E0  -9.999428360495E-1
   -3.415409319808E0  -9.999423725421E-1
   -3.410130248216E0  -9.999419049139E-1
   -3.404851176625E0  -9.999414331247E-1
   -3.399572105033E0  -9.999409571339E-1
   -3.394293033441E0  -9.999404769005E-1
   -3.389013961850E0  -9.999399923831E-1
   -3.383734890258E0  -9.999395035397E-1
   -3.378455818666E0  -9.999390103281E-1
   -3.373176747075E0  -9.999385127055E-1
   -3.367897675483E0  -9.999380106286E-1
   -3.362618603891E0  -9.999375040536E-1
   -3.357339532300E0  -9.999369929365E-1
   -3.352060460708E0  -9.999364772324E-1
   -3.346781389116E0  -9.999359568964E-1
   -3.341502317525E0  -9.999354318828E-1
   -3.336223245933E0  -9.999349021454E-1
   -3.330944174341E0  -9.999343676376E-1
   -3.325665102750E0  -9.999338283124E-1
   -3.320386031158E0  -9.999332841220E-1
   -3.315106959566E0  -9.999327350183E-1
   -3.309827887975E0  -9.999321809527E-1
   -3.304548816383E0  -9.999316218759E-1
   -3.299269744791E0  -9.999310577383E-1
   -3.293990673200E0  -9.999304884895E-1
   -3.288711601608E0  -9.999299140787E-1
   -3.283432530016E0  -9.999293344546E-1
   -3.278153458425E0  -9.999287495652E-1
   -3.272874386833E0  -9.999281593580E-1
   -3.267595315241E0  -9.999275637799E-1
   -3.262316243650E0  -9.999269627773E-1
   -3.257037172058E0  -9.999263562959E-1
   -3.251758100466E0  -9.999257442809E-1
   -3.246479028875E0  -9.999251266768E-1
   -3.241199957283E0  -9.999245034276E-1
   -3.235920885691E0  -9.999238744767E-1
   -3.230641814100E0  -9.999232397666E-1
   -3.225362742508E0  -9.999225992396E-1
   -3.220083670916E0  -9.999219528370E-1
   -3.214804599325E0  -9.999213004996E-1
   -3.209525527733E0  -9.999206421676E-1
   -3.204246456141E0  -9.999199777804E-1
   -3.198967384550E0  -9.999193072768E-1
   -3.193688312958E0  -9.999186305950E-1
   -3.188409241366E0  -9.999179476724E-1
   -3.183130169775E0  -9.999172584457E-1
   -3.177851098183E0  -9.999165628510E-1
   -3.172572026591E0  -9.999158608236E-1
   -3.167292955000E0  -9.999151522981E-1
   -3.162013883408E0  -9.999144372083E-1
   -3.156734811816E0  -9.999137154875E-1
   -3.151455740225E0  -9.999129870679E-1
   -3.146176668633E0  -9.999122518813E-1
   -3.140897597041E0  -9.999115098585E-1
   -3.135618525450E0  -9.999107609295E-1
   -3.130339453858E0  -9.999100050237E-1
   -3.125060382266E0  -9.999092420696E-1
   -3.119781310675E0  -9.999084719949E-1
   -3.114502239083E0  -9.999076947264E-1
   -3.109223167491E0  -9.999069101903E-1
   -3.103944095900E0  -9.999061183117E-1
   -3.098665024308E0  -9.999053190151E-1
   -3.093385952716E0  -9.999045122240E-1
   -3.088106881125E0  -9.999036978610E-1
   -3.082827809533E0  -9.999028758479E-1
   -3.077548737941E0  -9.999020461057E-1
   -3.072269666350E0  -9.999012085542E-1
   -3.066990594758E0  -9.999003631127E-1
   -3.061711523166E0  -9.998995096992E-1
   -3.056432451575E0  -9.998986482310E-1
   -3.051153379983E0  -9.998977786244E-1
   -3.045874308391E0  -9.998969007947E-1
   -3.040595236800E0  -9.998960146563E-1
   -3.035316165208E0  -9.998951201225E-1
   -3.030037093616E0  -9.998942171058E-1
   -3.024758022025E0  -9.998933055175E-1
   -3.019478950433E0  -9.998923852680E-1
   -3.014199878841E0  -9.998914562666E-1
   -3.008920807250E0  -9.998905184216E-1
   -3.003641735658E0  -9.998895716402E-1
   -2.998362664066E0  -9.998886158286E-1
   -2.993083592475E0  -9.998876508919E-1
   -2.987804520883E0  -9.998866767340E-1
   -2.982525449291E0  -9.998856932579E-1
   -2.977246377700E0  -9.998847003652E-1
   -2.971967306108E0  -9.998836979565E-1
   -2.966688234516E0  -9.998826859314E-1
   -2.961409162925E0  -9.998816641880E-1
   -2.956130091333E0  -9.998806326234E-1
   -2.950851019741E0  -9.998795911336E-1
   -2.945571948150E0  -9.998785396132E-1
   -2.940292876558E0  -9.998774779556E-1
   -2.935013804966E0  -9.998764060531E-1
   -2.929734733375E0  -9.998753237966E-1
   -2.924455661783E0  -9.998742310757E-1
   -2.919176590191E0  -9.998731277788E-1
   -2.913897518600E0  -9.998720137929E-1
   -2.908618447008E0  -9.998708890038E-1
   -2.903339375416E0  -9.998697532957E-1
   -2.898060303825E0  -9.998686065519E-1
   -2.892781232233E0  -9.998674486537E-1
   -2.887502160641E0  -9.998662794816E-1
   -2.882223089050E0  -9.998650989142E-1
   -2.876944017458E0  -9.998639068290E-1
   -2.871664945866E0  -9.998627031018E-1
   -2.866385874275E0  -9.998614876071E-1
   -2.861106802683E0  -9.998602602179E-1
   -2.855827731091E0  -9.998590208056E-1
   -2.850548659500E0  -9.998577692401E-1
   -2.845269587908E0  -9.998565053898E-1
   -2.839990516316E0  -9.998552291213E-1
   -2.834711444725E0  -9.998539403000E-1
   -2.829432373133E0  -9.998526387894E-1
   -2.824153301541E0  -9.998513244514E-1
   -2.818874229950E0  -9.998499971462E-1
   -2.813595158358E0  -9.998486567326E-1
   -2.808316086766E0  -9.998473030673E-1
   -2.803037015175E0  -9.998459360056E-1
   -2.797757943583E0  -9.998445554009E-1
   -2.792478871991E0  -9.998431611048E-1
   -2.787199800400E0  -9.998417529672E-1
   -2.781920728808E0  -9.998403308361E-1
   -2.776641657216E0  -9.998388945578E-1
   -2.771362585625E0  -9.998374439766E-1
   -2.766083514033E0  -9.998359789348E-1
   -2.760804442441E0  -9.998344992731E-1
   -2.755525370850E0  -9.998330048301E-1
   -2.750246299258E0  -9.998314954422E-1
   -2.744967227666E0  -9.998299709443E-1
   -2.739688156075E0  -9.998284311687E-1
   -2.734409084483E0  -9.998268759462E-1
   -2.729130012891E0  -9.998253051052E-1
   -2.723850941300E0  -9.998237184720E-1
   -2.718571869708E0  -9.998221158709E-1
   -2.713292798116E0  -9.998204971240E-1
