#             R [au]        psi_0 [a.u.]
    0.000000000000E0    0.000000000000E0
   3.333444448148E-3   1.454635388446E-5
   6.666888896297E-3   5.565456402759E-5
   1.000033334444E-2   1.246820103978E-4
   1.333377779259E-2   2.214164491541E-4
   1.666722224074E-2   3.458160255170E-4
   2.000066668889E-2   4.978604183968E-4
   2.333411113704E-2   6.775338317945E-4
   2.666755558519E-2   8.848209010426E-4
   3.000100003333E-2   1.119705344783E-3
   3.333444448148E-2   1.382169429193E-3
   3.666788892963E-2   1.672193725963E-3
   4.000133337778E-2   1.989756992455E-3
   4.333477782593E-2   2.334836108247E-3
   4.666822227408E-2   2.707406039966E-3
   5.000166672222E-2   3.107439821276E-3
   5.333511117037E-2   3.534908541472E-3
   5.666855561852E-2   3.989781339223E-3
   6.000200006667E-2   4.472025399527E-3
   6.333544451482E-2   4.981605952763E-3
   6.666888896297E-2   5.518486275189E-3
   7.000233341111E-2   6.082627690439E-3
   7.333577785926E-2   6.673989571790E-3
   7.666922230741E-2   7.292529345002E-3
   8.000266675556E-2   7.938202491628E-3
   8.333611120371E-2   8.610962552711E-3
   8.666955565186E-2   9.310761132817E-3
   9.000300010000E-2   1.003754790436E-2
   9.333644454815E-2   1.079127061220E-2
   9.666988899630E-2   1.157187507848E-2
   1.000033334444E-1   1.237930520772E-2
   1.033367778926E-1   1.321350299206E-2
   1.066702223407E-1   1.407440851684E-2
   1.100036667889E-1   1.496195996626E-2
   1.133371112370E-1   1.587609362932E-2
   1.166705556852E-1   1.681674390592E-2
   1.200040001333E-1   1.778384331315E-2
   1.233374445815E-1   1.877732249180E-2
   1.266708890296E-1   1.979711021303E-2
   1.300043334778E-1   2.084313338524E-2
   1.333377779259E-1   2.191531706107E-2
   1.366712223741E-1   2.301358444468E-2
   1.400046668222E-1   2.413785689914E-2
   1.433381112704E-1   2.528805395398E-2
   1.466715557185E-1   2.646409331296E-2
   1.500050001667E-1   2.766589086202E-2
   1.533384446148E-1   2.889336067735E-2
   1.566718890630E-1   3.014641503368E-2
   1.600053335111E-1   3.142496441274E-2
   1.633387779593E-1   3.272891751185E-2
   1.666722224074E-1   3.405818125269E-2
   1.700056668556E-1   3.541266079029E-2
   1.733391113037E-1   3.679225952209E-2
   1.766725557519E-1   3.819687909727E-2
   1.800060002000E-1   3.962641942615E-2
   1.833394446482E-1   4.108077868980E-2
   1.866728890963E-1   4.255985334980E-2
   1.900063335445E-1   4.406353815816E-2
   1.933397779926E-1   4.559172616740E-2
   1.966732224407E-1   4.714430874077E-2
   2.000066668889E-1   4.872117556264E-2
   2.033401113370E-1   5.032221464904E-2
   2.066735557852E-1   5.194731235837E-2
   2.100070002333E-1   5.359635340218E-2
   2.133404446815E-1   5.526922085624E-2
   2.166738891296E-1   5.696579617162E-2
   2.200073335778E-1   5.868595918599E-2
   2.233407780259E-1   6.042958813505E-2
   2.266742224741E-1   6.219655966411E-2
   2.300076669222E-1   6.398674883977E-2
   2.333411113704E-1   6.580002916180E-2
   2.366745558185E-1   6.763627257513E-2
   2.400080002667E-1   6.949534948196E-2
   2.433414447148E-1   7.137712875403E-2
   2.466748891630E-1   7.328147774502E-2
   2.500083336111E-1   7.520826230307E-2
   2.533417780593E-1   7.715734678346E-2
   2.566752225074E-1   7.912859406137E-2
   2.600086669556E-1   8.112186554479E-2
   2.633421114037E-1   8.313702118760E-2
   2.666755558519E-1   8.517391950271E-2
   2.700090003000E-1   8.723241757531E-2
   2.733424447482E-1   8.931237107637E-2
   2.766758891963E-1   9.141363427605E-2
   2.800093336445E-1   9.353606005743E-2
   2.833427780926E-1   9.567949993025E-2
   2.866762225408E-1   9.784380404474E-2
   2.900096669889E-1   1.000288212057E-1
   2.933431114370E-1   1.022343988863E-1
   2.966765558852E-1   1.044603832429E-1
   3.000100003333E-1   1.067066191287E-1
   3.033434447815E-1   1.089729501083E-1
   3.066768892296E-1   1.112592184727E-1
   3.100103336778E-1   1.135652652533E-1
   3.133437781259E-1   1.158909302368E-1
   3.166772225741E-1   1.182360519804E-1
   3.200106670222E-1   1.206004678260E-1
   3.233441114704E-1   1.229840139159E-1
   3.266775559185E-1   1.253865252075E-1
   3.300110003667E-1   1.278078354884E-1
   3.333444448148E-1   1.302477773921E-1
   3.366778892630E-1   1.327061824129E-1
   3.400113337111E-1   1.351828809217E-1
   3.433447781593E-1   1.376777021812E-1
   3.466782226074E-1   1.401904743619E-1
   3.500116670556E-1   1.427210245573E-1
   3.533451115037E-1   1.452691788001E-1
   3.566785559519E-1   1.478347620778E-1
   3.600120004000E-1   1.504175983486E-1
   3.633454448482E-1   1.530175105576E-1
   3.666788892963E-1   1.556343206525E-1
   3.700123337445E-1   1.582678496001E-1
   3.733457781926E-1   1.609179174020E-1
   3.766792226408E-1   1.635843431114E-1
   3.800126670889E-1   1.662669448491E-1
   3.833461115371E-1   1.689655398196E-1
   3.866795559852E-1   1.716799443281E-1
   3.900130004333E-1   1.744099737966E-1
   3.933464448815E-1   1.771554427805E-1
   3.966798893296E-1   1.799161649853E-1
   4.000133337778E-1   1.826919532827E-1
   4.033467782259E-1   1.854826197283E-1
   4.066802226741E-1   1.882879755772E-1
   4.100136671222E-1   1.911078313016E-1
   4.133471115704E-1   1.939419966071E-1
   4.166805560185E-1   1.967902804497E-1
   4.200140004667E-1   1.996524910529E-1
   4.233474449148E-1   2.025284359241E-1
   4.266808893630E-1   2.054179218722E-1
   4.300143338111E-1   2.083207550241E-1
   4.333477782593E-1   2.112367408417E-1
   4.366812227074E-1   2.141656841395E-1
   4.400146671556E-1   2.171073891007E-1
   4.433481116037E-1   2.200616592954E-1
   4.466815560519E-1   2.230282976968E-1
   4.500150005000E-1   2.260071066988E-1
   4.533484449482E-1   2.289978881330E-1
   4.566818893963E-1   2.320004432859E-1
   4.600153338445E-1   2.350145729159E-1
   4.633487782926E-1   2.380400772710E-1
   4.666822227408E-1   2.410767561052E-1
   4.700156671889E-1   2.441244086965E-1
   4.733491116371E-1   2.471828338636E-1
   4.766825560852E-1   2.502518299832E-1
   4.800160005334E-1   2.533311950074E-1
   4.833494449815E-1   2.564207264806E-1
   4.866828894296E-1   2.595202215572E-1
   4.900163338778E-1   2.626294770183E-1
   4.933497783259E-1   2.657482892891E-1
   4.966832227741E-1   2.688764544562E-1
   5.000166672222E-1   2.720137682846E-1
   5.033501116704E-1   2.751600262350E-1
   5.066835561185E-1   2.783150234811E-1
   5.100170005667E-1   2.814785549264E-1
   5.133504450148E-1   2.846504152214E-1
   5.166838894630E-1   2.878303987810E-1
   5.200173339111E-1   2.910182998014E-1
   5.233507783593E-1   2.942139122771E-1
   5.266842228074E-1   2.974170300180E-1
   5.300176672556E-1   3.006274466666E-1
   5.333511117037E-1   3.038449557145E-1
   5.366845561519E-1   3.070693505200E-1
   5.400180006000E-1   3.103004243245E-1
   5.433514450482E-1   3.135379702697E-1
   5.466848894963E-1   3.167817814143E-1
   5.500183339445E-1   3.200316507509E-1
   5.533517783926E-1   3.232873712228E-1
   5.566852228408E-1   3.265487357406E-1
   5.600186672889E-1   3.298155371991E-1
   5.633521117371E-1   3.330875684939E-1
   5.666855561852E-1   3.363646225378E-1
   5.700190006334E-1   3.396464922777E-1
   5.733524450815E-1   3.429329707109E-1
   5.766858895297E-1   3.462238509016E-1
   5.800193339778E-1   3.495189259973E-1
   5.833527784259E-1   3.528179892454E-1
   5.866862228741E-1   3.561208340090E-1
   5.900196673222E-1   3.594272537836E-1
   5.933531117704E-1   3.627370422132E-1
   5.966865562185E-1   3.660499931062E-1
   6.000200006667E-1   3.693659004517E-1
   6.033534451148E-1   3.726845584355E-1
   6.066868895630E-1   3.760057614558E-1
   6.100203340111E-1   3.793293041394E-1
   6.133537784593E-1   3.826549813572E-1
   6.166872229074E-1   3.859825882402E-1
   6.200206673556E-1   3.893119201950E-1
   6.233541118037E-1   3.926427729194E-1
   6.266875562519E-1   3.959749424181E-1
   6.300210007000E-1   3.993082250177E-1
   6.333544451482E-1   4.026424173826E-1
   6.366878895963E-1   4.059773165301E-1
   6.400213340445E-1   4.093127198453E-1
   6.433547784926E-1   4.126484250967E-1
   6.466882229408E-1   4.159842304509E-1
   6.500216673889E-1   4.193199344879E-1
   6.533551118371E-1   4.226553362154E-1
   6.566885562852E-1   4.259902350843E-1
   6.600220007334E-1   4.293244310030E-1
   6.633554451815E-1   4.326577243519E-1
   6.666888896297E-1   4.359899159983E-1
   6.700223340778E-1   4.393208073106E-1
   6.733557785260E-1   4.426502001727E-1
   6.766892229741E-1   4.459778969981E-1
   6.800226674222E-1   4.493037007443E-1
   6.833561118704E-1   4.526274149267E-1
   6.866895563185E-1   4.559488436327E-1
   6.900230007667E-1   4.592677915353E-1
   6.933564452148E-1   4.625840639072E-1
   6.966898896630E-1   4.658974666340E-1
   7.000233341111E-1   4.692078062285E-1
   7.033567785593E-1   4.725148898432E-1
   7.066902230074E-1   4.758185252846E-1
   7.100236674556E-1   4.791185210258E-1
   7.133571119037E-1   4.824146862199E-1
   7.166905563519E-1   4.857068307128E-1
   7.200240008000E-1   4.889947650567E-1
   7.233574452482E-1   4.922783005223E-1
   7.266908896963E-1   4.955572491117E-1
   7.300243341445E-1   4.988314235713E-1
   7.333577785926E-1   5.021006374037E-1
   7.366912230408E-1   5.053647048808E-1
   7.400246674889E-1   5.086234410554E-1
   7.433581119371E-1   5.118766617737E-1
   7.466915563852E-1   5.151241836873E-1
   7.500250008334E-1   5.183658242652E-1
   7.533584452815E-1   5.216014018053E-1
   7.566918897297E-1   5.248307354464E-1
   7.600253341778E-1   5.280536451795E-1
   7.633587786260E-1   5.312699518596E-1
   7.666922230741E-1   5.344794772167E-1
   7.700256675223E-1   5.376820438672E-1
   7.733591119704E-1   5.408774753247E-1
   7.766925564185E-1   5.440655960114E-1
   7.800260008667E-1   5.472462312688E-1
   7.833594453148E-1   5.504192073682E-1
   7.866928897630E-1   5.535843515214E-1
   7.900263342111E-1   5.567414918914E-1
   7.933597786593E-1   5.598904576024E-1
   7.966932231074E-1   5.630310787504E-1
   8.000266675556E-1   5.661631864129E-1
   8.033601120037E-1   5.692866126592E-1
   8.066935564519E-1   5.724011905601E-1
   8.100270009000E-1   5.755067541975E-1
   8.133604453482E-1   5.786031386744E-1
   8.166938897963E-1   5.816901801239E-1
   8.200273342445E-1   5.847677157187E-1
   8.233607786926E-1   5.878355836805E-1
   8.266942231408E-1   5.908936232887E-1
   8.300276675889E-1   5.939416748897E-1
   8.333611120371E-1   5.969795799056E-1
   8.366945564852E-1   6.000071808427E-1
   8.400280009334E-1   6.030243213005E-1
   8.433614453815E-1   6.060308459795E-1
   8.466948898297E-1   6.090266006901E-1
   8.500283342778E-1   6.120114323604E-1
   8.533617787260E-1   6.149851890443E-1
   8.566952231741E-1   6.179477199295E-1
   8.600286676223E-1   6.208988753451E-1
   8.633621120704E-1   6.238385067695E-1
   8.666955565186E-1   6.267664668376E-1
   8.700290009667E-1   6.296826093482E-1
   8.733624454148E-1   6.325867892717E-1
   8.766958898630E-1   6.354788627564E-1
   8.800293343111E-1   6.383586871363E-1
   8.833627787593E-1   6.412261209372E-1
   8.866962232074E-1   6.440810238840E-1
   8.900296676556E-1   6.469232569070E-1
   8.933631121037E-1   6.497526821481E-1
   8.966965565519E-1   6.525691629678E-1
   9.000300010000E-1   6.553725639505E-1
   9.033634454482E-1   6.581627509112E-1
   9.066968898963E-1   6.609395909012E-1
   9.100303343445E-1   6.637029522137E-1
   9.133637787926E-1   6.664527043898E-1
   9.166972232408E-1   6.691887182234E-1
   9.200306676889E-1   6.719108657673E-1
   9.233641121371E-1   6.746190203380E-1
   9.266975565852E-1   6.773130565208E-1
   9.300310010334E-1   6.799928501749E-1
   9.333644454815E-1   6.826582784383E-1
   9.366978899297E-1   6.853092197324E-1
   9.400313343778E-1   6.879455537664E-1
   9.433647788260E-1   6.905671615421E-1
   9.466982232741E-1   6.931739253580E-1
   9.500316677223E-1   6.957657288135E-1
   9.533651121704E-1   6.983424568129E-1
   9.566985566186E-1   7.009039955695E-1
   9.600320010667E-1   7.034502326092E-1
   9.633654455149E-1   7.059810567742E-1
   9.666988899630E-1   7.084963582266E-1
   9.700323344111E-1   7.109960284516E-1
   9.733657788593E-1   7.134799602611E-1
   9.766992233074E-1   7.159480477965E-1
   9.800326677556E-1   7.184001865318E-1
   9.833661122037E-1   7.208362732766E-1
   9.866995566519E-1   7.232562061787E-1
   9.900330011000E-1   7.256598847269E-1
   9.933664455482E-1   7.280472097532E-1
   9.966998899963E-1   7.304180834356E-1
    1.000033334444E0   7.327724092998E-1
    1.003366778893E0   7.351100922218E-1
    1.006700223341E0   7.374310384295E-1
    1.010033667789E0   7.397351555048E-1
    1.013367112237E0   7.420223523855E-1
    1.016700556685E0   7.442925393665E-1
    1.020034001133E0   7.465456281013E-1
    1.023367445582E0   7.487815316040E-1
    1.026700890030E0   7.510001642496E-1
    1.030034334478E0   7.532014417760E-1
    1.033367778926E0   7.553852812844E-1
    1.036701223374E0   7.575516012404E-1
    1.040034667822E0   7.597003214747E-1
    1.043368112270E0   7.618313631840E-1
    1.046701556719E0   7.639446489309E-1
    1.050035001167E0   7.660401026451E-1
    1.053368445615E0   7.681176496230E-1
    1.056701890063E0   7.701772165282E-1
    1.060035334511E0   7.722187313915E-1
    1.063368778959E0   7.742421236107E-1
    1.066702223407E0   7.762473239505E-1
    1.070035667856E0   7.782342645424E-1
    1.073369112304E0   7.802028788838E-1
    1.076702556752E0   7.821531018380E-1
    1.080036001200E0   7.840848696332E-1
    1.083369445648E0   7.859981198617E-1
    1.086702890096E0   7.878927914795E-1
    1.090036334544E0   7.897688248047E-1
    1.093369778993E0   7.916261615167E-1
    1.096703223441E0   7.934647446553E-1
    1.100036667889E0   7.952845186187E-1
    1.103370112337E0   7.970854291627E-1
    1.106703556785E0   7.988674233988E-1
    1.110037001233E0   8.006304497930E-1
    1.113370445682E0   8.023744581632E-1
    1.116703890130E0   8.040993996785E-1
    1.120037334578E0   8.058052268564E-1
    1.123370779026E0   8.074918935609E-1
    1.126704223474E0   8.091593550005E-1
    1.130037667922E0   8.108075677262E-1
    1.133371112370E0   8.124364896284E-1
    1.136704556819E0   8.140460799352E-1
    1.140038001267E0   8.156362992092E-1
    1.143371445715E0   8.172071093453E-1
    1.146704890163E0   8.187584735680E-1
    1.150038334611E0   8.202903564278E-1
    1.153371779059E0   8.218027237993E-1
    1.156705223507E0   8.232955428774E-1
    1.160038667956E0   8.247687821742E-1
    1.163372112404E0   8.262224115162E-1
    1.166705556852E0   8.276564020407E-1
    1.170039001300E0   8.290707261922E-1
    1.173372445748E0   8.304653577192E-1
    1.176705890196E0   8.318402716703E-1
    1.180039334644E0   8.331954443909E-1
    1.183372779093E0   8.345308535189E-1
    1.186706223541E0   8.358464779813E-1
    1.190039667989E0   8.371422979900E-1
    1.193373112437E0   8.384182950377E-1
    1.196706556885E0   8.396744518938E-1
    1.200040001333E0   8.409107526004E-1
    1.203373445782E0   8.421271824677E-1
    1.206706890230E0   8.433237280698E-1
    1.210040334678E0   8.445003772402E-1
    1.213373779126E0   8.456571190670E-1
    1.216707223574E0   8.467939438887E-1
    1.220040668022E0   8.479108432892E-1
    1.223374112470E0   8.490078100932E-1
    1.226707556919E0   8.500848383611E-1
    1.230041001367E0   8.511419233841E-1
    1.233374445815E0   8.521790616795E-1
    1.236707890263E0   8.531962509851E-1
    1.240041334711E0   8.541934902546E-1
    1.243374779159E0   8.551707796517E-1
    1.246708223607E0   8.561281205454E-1
    1.250041668056E0   8.570655155042E-1
    1.253375112504E0   8.579829682910E-1
    1.256708556952E0   8.588804838572E-1
    1.260042001400E0   8.597580683373E-1
    1.263375445848E0   8.606157290433E-1
    1.266708890296E0   8.614534744587E-1
    1.270042334744E0   8.622713142331E-1
    1.273375779193E0   8.630692591760E-1
    1.276709223641E0   8.638473212512E-1
    1.280042668089E0   8.646055135703E-1
    1.283376112537E0   8.653438503872E-1
    1.286709556985E0   8.660623470918E-1
    1.290043001433E0   8.667610202035E-1
    1.293376445882E0   8.674398873656E-1
    1.296709890330E0   8.680989673384E-1
    1.300043334778E0   8.687382799932E-1
    1.303376779226E0   8.693578463060E-1
    1.306710223674E0   8.699576883504E-1
    1.310043668122E0   8.705378292919E-1
    1.313377112570E0   8.710982933809E-1
    1.316710557019E0   8.716391059460E-1
    1.320044001467E0   8.721602933876E-1
    1.323377445915E0   8.726618831709E-1
    1.326710890363E0   8.731439038194E-1
    1.330044334811E0   8.736063849077E-1
    1.333377779259E0   8.740493570550E-1
    1.336711223707E0   8.744728519180E-1
    1.340044668156E0   8.748769021840E-1
    1.343378112604E0   8.752615415635E-1
    1.346711557052E0   8.756268047840E-1
    1.350045001500E0   8.759727275818E-1
    1.353378445948E0   8.762993466957E-1
    1.356711890396E0   8.766066998594E-1
    1.360045334844E0   8.768948257945E-1
    1.363378779293E0   8.771637642029E-1
    1.366712223741E0   8.774135557596E-1
    1.370045668189E0   8.776442421058E-1
    1.373379112637E0   8.778558658406E-1
    1.376712557085E0   8.780484705145E-1
    1.380046001533E0   8.782221006212E-1
    1.383379445982E0   8.783768015906E-1
    1.386712890430E0   8.785126197809E-1
    1.390046334878E0   8.786296024713E-1
    1.393379779326E0   8.787277978543E-1
    1.396713223774E0   8.788072550278E-1
    1.400046668222E0   8.788680239879E-1
    1.403380112670E0   8.789101556209E-1
    1.406713557119E0   8.789337016955E-1
    1.410047001567E0   8.789387148553E-1
    1.413380446015E0   8.789252486109E-1
    1.416713890463E0   8.788933918695E-1
    1.420047334911E0   8.788431480448E-1
    1.423380779359E0   8.787745904698E-1
    1.426714223807E0   8.786877760441E-1
    1.430047668256E0   8.785827624950E-1
    1.433381112704E0   8.784596083694E-1
    1.436714557152E0   8.783183730258E-1
    1.440048001600E0   8.781591166267E-1
    1.443381446048E0   8.779819001302E-1
    1.446714890496E0   8.777867852819E-1
    1.450048334944E0   8.775738346073E-1
    1.453381779393E0   8.773431114035E-1
    1.456715223841E0   8.770946797308E-1
    1.460048668289E0   8.768286044052E-1
    1.463382112737E0   8.765449509899E-1
    1.466715557185E0   8.762437857872E-1
    1.470049001633E0   8.759251758303E-1
    1.473382446082E0   8.755891888755E-1
    1.476715890530E0   8.752358933936E-1
    1.480049334978E0   8.748653585619E-1
    1.483382779426E0   8.744776542559E-1
    1.486716223874E0   8.740728510413E-1
    1.490049668322E0   8.736510201656E-1
    1.493383112770E0   8.732122335499E-1
    1.496716557219E0   8.727565637807E-1
    1.500050001667E0   8.722840841018E-1
    1.503383446115E0   8.717948684056E-1
    1.506716890563E0   8.712889912252E-1
    1.510050335011E0   8.707665277263E-1
    1.513383779459E0   8.702275536985E-1
    1.516717223907E0   8.696721455471E-1
    1.520050668356E0   8.691003802851E-1
    1.523384112804E0   8.685123355249E-1
    1.526717557252E0   8.679080894696E-1
    1.530051001700E0   8.672877209050E-1
    1.533384446148E0   8.666513091916E-1
    1.536717890596E0   8.659989342557E-1
    1.540051335045E0   8.653306765815E-1
    1.543384779493E0   8.646466172029E-1
    1.546718223941E0   8.639468376949E-1
    1.550051668389E0   8.632314201655E-1
    1.553385112837E0   8.625004472475E-1
    1.556718557285E0   8.617540020900E-1
    1.560052001733E0   8.609921683504E-1
    1.563385446182E0   8.602150301858E-1
    1.566718890630E0   8.594226722451E-1
    1.570052335078E0   8.586151796605E-1
    1.573385779526E0   8.577926380393E-1
    1.576719223974E0   8.569551334559E-1
    1.580052668422E0   8.561027524431E-1
    1.583386112870E0   8.552355819843E-1
    1.586719557319E0   8.543537095051E-1
    1.590053001767E0   8.534572228651E-1
    1.593386446215E0   8.525462103497E-1
    1.596719890663E0   8.516207606621E-1
    1.600053335111E0   8.506809629149E-1
    1.603386779559E0   8.497269066219E-1
    1.606720224007E0   8.487586816903E-1
    1.610053668456E0   8.477763784123E-1
    1.613387112904E0   8.467800874570E-1
    1.616720557352E0   8.457698998622E-1
