#             E [au]      sigma_0 [au^2]      sigma_1 [au^2]      sigma_2 [au^2]      sigma_3 [au^2]    sigma_tot [au^2]
    0.000000000000E0                 NaN                 NaN                 NaN                 NaN                 NaN
   5.000000000000E-2    4.327432267944E1   2.158454832897E-2   2.410469899382E-5  5.123042198093E-11    4.329593133252E1
   1.000000000000E-1    3.570679859271E1   7.777812816856E-2   3.410506205869E-4   3.294996699689E-9    3.578491777479E1
   1.500000000000E-1    3.012591829721E1   1.585486082383E-1   1.528976123803E-3   3.774091287312E-8    3.028599591931E1
   2.000000000000E-1    2.584407905191E1   2.566266702442E-1   4.286458258967E-3   2.133693282951E-7    2.610499239378E1
   2.500000000000E-1    2.245830211351E1   3.666543033595E-1   9.300074866981E-3   8.195421782954E-7    2.283425731128E1
   3.000000000000E-1    1.971676161264E1   4.846277977011E-1   1.717195706079E-2   2.465727884586E-6    2.021856383313E1
   3.500000000000E-1    1.745398147463E1   6.075230087012E-1   2.838656547855E-2   6.269526492218E-6    1.808989731834E1
   4.000000000000E-1    1.555673914152E1   7.330370098555E-1   4.330179742853E-2   1.409722197451E-5    1.633309204602E1
   4.500000000000E-1    1.394494316993E1   8.594061246785E-1   6.215420826088E-2   2.886358296559E-5    1.486653236646E1
   5.000000000000E-1    1.256033593406E1   9.852753036278E-1   8.507161787128E-2   5.489943780577E-5    1.363073775499E1
   5.500000000000E-1    1.135952413558E1    1.109602767627E0   1.120888519995E-1   9.839773743917E-5    1.258131415294E1
   6.000000000000E-1    1.030951896702E1    1.231589341349E0   1.431640628652E-1   1.679514828329E-4    1.168444032271E1
   6.500000000000E-1    9.384791287350E0    1.350625373339E0   1.781941934518E-1   2.752001501089E-4    1.091388605429E1
   7.000000000000E-1    8.565273548481E0    1.466250380149E0   2.170288645210E-1   4.356052466763E-4    1.024898839840E1
   7.500000000000E-1    7.834971417109E0    1.578122027147E0   2.594824033478E-1   6.693805689937E-4    9.673245228173E0
   8.000000000000E-1    7.180978547323E0    1.685992050623E0   3.053439909505E-1   1.002608848177E-3    9.173317197745E0
   8.500000000000E-1    6.592764217551E0    1.789687398038E0   3.543860446183E-1   1.468584085495E-3    8.738306244293E0
   9.000000000000E-1    6.061649559552E0    1.889095340546E0   4.063710211073E-1   2.109428394154E-3    8.359225349600E0
   9.500000000000E-1    5.580416580949E0    1.984151629293E0   4.610568487512E-1   2.978044105107E-3    8.028603103098E0
    1.000000000000E0    5.143012299677E0    2.074831016824E0   5.182011956373E-1   4.140476925768E-3    7.740184989064E0
    1.050000000000E0    4.744322031938E0    2.161139621903E0   5.775647661132E-1   5.678784980160E-3    7.488705204934E0
    1.100000000000E0    4.379993701069E0    2.243108750357E0   6.389137965058E-1   7.694532646036E-3    7.269710780578E0
    1.150000000000E0    4.046300231918E0    2.320789866785E0   7.020218988070E-1   1.031305889557E-2    7.079425056406E0
    1.200000000000E0    3.740030748059E0    2.394250490036E0   7.666713777673E-1   1.368870906979E-2    6.914641324932E0
    1.250000000000E0    3.458403765276E0    2.463570826123E0   8.326541273643E-1   1.801126939403E-2    6.772639988157E0
    1.300000000000E0    3.198997361616E0    2.528841001163E0   8.997721939355E-1   2.351390830731E-2    6.651124465021E0
    1.350000000000E0    2.959692579603E0    2.590158779751E0   9.678380776057E-1   3.048301209148E-2    6.548172449051E0
    1.400000000000E0    2.738627210054E0    2.647627679833E0    1.036674830918E0   3.927041027751E-2    6.462200131082E0
    1.450000000000E0    2.534157811937E0    2.701355414249E0    1.106116001369E0   5.030862584463E-2    6.391937853400E0
    1.500000000000E0    2.344828296935E0    2.751452597886E0    1.176005456639E0   6.412996611541E-2    6.336416317576E0
    1.550000000000E0    2.169343798495E0    2.798031679109E0    1.246197122581E0   8.139050450229E-2    6.294963104687E0
    1.600000000000E0    2.006548802833E0    2.841206053410E0    1.316554658429E0   1.029003059047E-1    6.267209820577E0
    1.650000000000E0    1.855408771759E0    2.881089330327E0    1.386951088673E0   1.296616380170E-1    6.253110828776E0
    1.700000000000E0    1.714994601421E0    2.917794728758E0    1.457268406621E0   1.629174077278E-1    6.252975144528E0
    1.750000000000E0    1.584469433604E0    2.951434578662E0    1.527397161288E0   2.042126887790E-1    6.267513862333E0
    1.800000000000E0    1.463077406402E0    2.982119912496E0    1.597236036953E0   2.554729779844E-1    6.297906333835E0
    1.850000000000E0    1.350134021886E0    3.009960131904E0    1.666691432504E0   3.191037375777E-1    6.345889323871E0
    1.900000000000E0    1.245017864685E0    3.035062739210E0    1.735677046006E0   3.981168019331E-1    6.413874451834E0
    1.950000000000E0    1.147163456204E0    3.057533120377E0    1.804113467667E0   4.962902260684E-1    6.505100270317E0
    2.000000000000E0    1.056055063922E0    3.077474375675E0    1.871927785617E0   6.183688117250E-1    6.623826036939E0
    2.050000000000E0   9.712213210363E-1    3.094987186478E0    1.939053204561E0   7.703122025368E-1    6.775573914613E0
    2.100000000000E0   8.922305380229E-1    3.110169715523E0    2.005428680463E0   9.595947810577E-1    6.967423715066E0
    2.150000000000E0   8.186865948294E-1    3.123117535135E0    2.070998570784E0    1.195554131954E0    7.208356832703E0
    2.200000000000E0   7.502253468022E-1    3.133923577511E0    2.135712301651E0    1.489768110068E0    7.509629336032E0
    2.250000000000E0   6.865114546788E-1    3.142678105197E0    2.199524051374E0    1.856407013340E0    7.885120624591E0
    2.300000000000E0   6.272355899615E-1    3.149468698857E0    2.262392450458E0    2.312445366132E0    8.351542105410E0
    2.350000000000E0   5.721119648941E-1    3.154380257500E0    2.324280297902E0    2.877512081350E0    8.928284601647E0
    2.400000000000E0   5.208761370998E-1    3.157495012415E0    2.385154293099E0    3.572995596759E0    9.636521039373E0
    2.450000000000E0   4.732830632580E-1    3.158892549939E0    2.444984783042E0    4.419812552921E0    1.049697294916E1
    2.500000000000E0   4.291053612265E-1    3.158649842751E0    2.503745524104E0    5.434078068970E0    1.152557879705E1
    2.550000000000E0   3.881317586889E-1    3.156841288945E0    2.561413457941E0    6.620021411431E0    1.272640791701E1
    2.600000000000E0   3.501657038869E-1    3.153538755808E0    2.617968500672E0    7.960326010107E0    1.408199897047E1
    2.650000000000E0   3.150241214341E-1    3.148811629474E0    2.673393344255E0    9.406123773209E0    1.554335286837E1
    2.700000000000E0   2.825362895983E-1    3.142726868269E0    2.727673270403E0    1.087188925769E1    1.702482568596E1
    2.750000000000E0   2.525428352285E-1    3.135349059055E0    2.780795975942E0    1.224226559414E1    1.841095346437E1
    2.800000000000E0   2.248948219416E-1    3.126740476369E0    2.832751408487E0    1.339453190437E1    1.957891861116E1
    2.850000000000E0   1.994529274606E-1    3.116961144255E0    2.883531612617E0    1.423075423305E1    2.043069991738E1
    2.900000000000E0   1.760866995371E-1    3.106068898501E0    2.933130584943E0    1.470433672963E1    2.091962291261E1
    2.950000000000E0   1.546738783803E-1    3.094119451379E0    2.981544138899E0    1.482708491931E1    2.105742238797E1
    3.000000000000E0   1.350997840657E-1    3.081166456499E0    3.028769777135E0    1.465555626301E1    2.090059228071E1
    3.050000000000E0   1.172567568915E-1    3.067261574370E0    3.074806572863E0    1.426744700412E1    2.052677190824E1
    3.100000000000E0   1.010436476557E-1    3.052454538787E0    3.119655057666E0    1.374041647796E1    2.001356972207E1
    3.150000000000E0   8.636535261405E-2    3.036793222377E0    3.163317116703E0    1.313952914847E1    1.942600484016E1
    3.200000000000E0   7.313238777691E-2    3.020323703080E0    3.205795890325E0    1.251304156341E1    1.881229354459E1
    3.250000000000E0   6.126049881978E-2    3.003090329570E0    3.247095681729E0    1.189341634149E1    1.820486285161E1
    3.300000000000E0   5.067030500044E-2    2.985135786836E0    3.287221870681E0    1.130053566800E1    1.762356363051E1
    3.350000000000E0   4.128697032143E-2    2.966501160467E0    3.326180832541E0    1.074522821109E1    1.707919717442E1
    3.400000000000E0   3.303990196231E-2    2.947226001275E0    3.363979861980E0    1.023226448726E1    1.657651025248E1
    3.450000000000E0   2.586247299372E-2    2.927348388030E0    3.400627101634E0    9.762602085976E0    1.611644004863E1
    3.500000000000E0   1.969176574258E-2    2.906904989984E0    3.436131475414E0    9.334946364810E0    1.569767459595E1
    3.550000000000E0   1.446833625244E-2    2.885931128227E0    3.470502625400E0    8.946780126733E0    1.531768221661E1
    3.600000000000E0   1.013599578225E-2    2.864460835574E0    3.503750853527E0    8.595015206059E0    1.497336289094E1
    3.650000000000E0   6.641608807489E-3    2.842526915875E0    3.535887066134E0    8.276388697769E0    1.466144428859E1
    3.700000000000E0   3.934906206676E-3    2.820161001266E0    3.566922722126E0    7.987692890901E0    1.437871152050E1
    3.750000000000E0   1.968311788913E-3    2.797393608737E0    3.596869784665E0    7.725899952795E0    1.412213165799E1
    3.800000000000E0   6.967813829148E-4    2.774254194590E0    3.625740675180E0    7.488221727834E0    1.388891337899E1
    3.850000000000E0   7.765355148259E-5    2.750771207909E0    3.653548231118E0    7.272130678566E0    1.367652777115E1
    3.900000000000E0   7.051044032910E-5    2.726972141574E0    3.680305665778E0    7.075358428432E0    1.348270674622E1
    3.950000000000E0   6.370484123745E-4    2.702883582577E0    3.706026530737E0    6.895882134467E0    1.330542929619E1
    4.000000000000E0   1.740957440960E-3    2.678531259328E0    3.730724680348E0    6.731904928500E0    1.314290182562E1
    4.050000000000E0   3.347808734950E-3    2.653940087921E0    3.754414239171E0    6.581834136889E0    1.299353627272E1
    4.100000000000E0   5.424949687170E-3    2.629134216017E0    3.777109570360E0    6.444259418935E0    1.285592815500E1
    4.150000000000E0   7.941405768329E-3    2.604137064458E0    3.798825247418E0    6.317931990487E0    1.272883570813E1
    4.200000000000E0   1.086778887029E-2    2.578971367195E0    3.819576026129E0    6.201745503600E0    1.261116068579E1
    4.250000000000E0   1.417621132723E-2    2.553659208235E0    3.839376819728E0    6.094718810763E0    1.250193105005E1
    4.300000000000E0   1.784020554927E-2    2.528222057056E0    3.858242674676E0    5.995980630149E0    1.240028556743E1
    4.350000000000E0   2.183464884954E-2    2.502680800983E0    3.876188748009E0    5.904756026079E0    1.230546022392E1
    4.400000000000E0   2.613569223574E-2    2.477055775558E0    3.893230286576E0    5.820354556828E0    1.221677631120E1
    4.450000000000E0   3.072069438627E-2    2.451366792112E0    3.909382607749E0    5.742159924579E0    1.213363001883E1
    4.500000000000E0   3.556815897377E-2    2.425633163085E0    3.924661080314E0    5.669620957048E0    1.205548335942E1
    4.550000000000E0   4.065767611899E-2    2.399873724498E0    3.939081107814E0    5.602243759852E0    1.198185626828E1
    4.600000000000E0   4.596986730823E-2    2.374106856193E0    3.952658112019E0    5.539584888793E0    1.191231972431E1
    4.650000000000E0   5.148633310789E-2    2.348350499325E0    3.965407518061E0    5.481245409965E0    1.184648976046E1
    4.700000000000E0   5.718960421283E-2    2.322622171375E0    3.977344740375E0    5.426865727994E0    1.178402224396E1
    4.750000000000E0   6.306309543443E-2    2.296938978751E0    3.988485169529E0    5.376121079287E0    1.172460832300E1
    4.800000000000E0   6.909106182787E-2    2.271317626738E0    3.998844159847E0    5.328717599327E0    1.166797044774E1
    4.850000000000E0   7.525855769955E-2    2.245774427424E0    4.008437018061E0    5.284388886834E0    1.161385889002E1
    4.900000000000E0   8.155139808374E-2    2.220325305029E0    4.017278992400E0    5.242892996942E0    1.156204869246E1
    4.950000000000E0   8.795612118536E-2    2.194985799232E0    4.025385262842E0    5.204009805165E0    1.151233698842E1
    5.000000000000E0   9.445995430329E-2    2.169771066420E0    4.032770931906E0    5.167538693575E0    1.146454064620E1
    5.050000000000E0   1.010507805236E-1    2.144695878979E0    4.039451015787E0    5.133296514384E0    1.141849418967E1
    5.100000000000E0   1.077171078160E-1    2.119774622718E0    4.045440436459E0    5.101115796744E0    1.137404796374E1
    5.150000000000E0   1.144480396818E-1    2.095021293092E0    4.050754014304E0    5.070843162503E0    1.133106650958E1
    5.200000000000E0   1.212332468282E-1    2.070449489306E0    4.055406461021E0    5.042337925719E0    1.128942712287E1
    5.250000000000E0   1.280629407004E-1    2.046072407899E0    4.059412373366E0    5.015470851758E0    1.124901857372E1
    5.300000000000E0   1.349278485989E-1    2.021902834844E0    4.062786227404E0    4.990123055401E0    1.120973996625E1
    5.350000000000E0   1.418191894279E-1    1.997953136676E0    4.065542372752E0    4.966185021607E0    1.117149972046E1
    5.400000000000E0   1.487286512094E-1    1.974235251517E0    4.067695027796E0    4.943555732700E0    1.113421466322E1
    5.450000000000E0   1.556483699813E-1    1.950760679071E0    4.069258274836E0    4.922141889462E0    1.109780921335E1
    5.500000000000E0   1.625709083133E-1    1.927540470722E0    4.070246056078E0    4.901857215495E0    1.106221465061E1
    5.550000000000E0   1.694892366645E-1    1.904585219484E0    4.070672169782E0    4.882621833546E0    1.102736845948E1
    5.600000000000E0   1.763967143654E-1    1.881905050090E0    4.070550266477E0    4.864361706380E0    1.099321373731E1
    5.650000000000E0   1.832870722331E-1    1.859509609459E0    4.069893845960E0    4.847008135055E0    1.095969866271E1
    5.700000000000E0   1.901543959859E-1    1.837408057707E0    4.068716254322E0    4.830497306340E0    1.092677601436E1
    5.750000000000E0   1.969931097128E-1    1.815609059815E0    4.067030681227E0    4.814769885705E0    1.089440273646E1
    5.800000000000E0   2.037979610021E-1    1.794120778116E0    4.064850157650E0    4.799770649641E0    1.086253954641E1
    5.850000000000E0   2.105640061680E-1    1.772950865853E0    4.062187553878E0    4.785448153218E0    1.083115057912E1
    5.900000000000E0   2.172865967232E-1    1.752106461715E0    4.059055577331E0    4.771754429125E0    1.080020306489E1
    5.950000000000E0   2.239613657580E-1    1.731594185767E0    4.055466771195E0    4.758644715098E0    1.076966703782E1
    6.000000000000E0   2.305842160742E-1    1.711420136504E0    4.051433512829E0    4.746077205772E0    1.073951507118E1
    6.050000000000E0   2.371513070869E-1    1.691589889374E0    4.046968012555E0    4.734012827762E0    1.070972203678E1
    6.100000000000E0   2.436590441801E-1    1.672108496660E0    4.042082312673E0    4.722415034514E0    1.068026488803E1
    6.150000000000E0   2.501040672360E-1    1.652980488951E0    4.036788286572E0    4.711249619290E0    1.065112246205E1
    6.200000000000E0   2.564832405347E-1    1.634209877862E0    4.031097637926E0    4.700484544590E0    1.062227530091E1
    6.250000000000E0   2.627936423680E-1    1.615800160403E0    4.025021900266E0    4.690089786129E0    1.059370548917E1
    6.300000000000E0   2.690325560500E-1    1.597754324764E0    4.018572436457E0    4.680037189981E0    1.056539650725E1
    6.350000000000E0   2.751974600298E-1    1.580074857384E0    4.011760438577E0    4.670300341893E0    1.053733309788E1
    6.400000000000E0   2.812860194168E-1    1.562763751641E0    4.004596927649E0    4.660854447223E0    1.050950114593E1
    6.450000000000E0   2.872960778473E-1    1.545822517523E0    3.997092753707E0    4.651676220694E0    1.048188756977E1
    6.500000000000E0   2.932256490655E-1    1.529252192833E0    3.989258595916E0    4.642743785042E0    1.045448022286E1
    6.550000000000E0   2.990729099474E-1    1.513053355291E0    3.981104962650E0    4.634036577710E0    1.042726780560E1
    6.600000000000E0   3.048361921574E-1    1.497226135913E0    3.972642191913E0    4.625535264836E0    1.040023978482E1
    6.650000000000E0   3.105139759034E-1    1.481770233177E0    3.963880451772E0    4.617221661902E0    1.037338632275E1
    6.700000000000E0   3.161048827756E-1    1.466684928229E0    3.954829740826E0    4.609078660441E0    1.034669821227E1
    6.750000000000E0   3.216076696097E-1    1.451969100607E0    3.945499888716E0    4.601090160370E0    1.032016681930E1
    6.800000000000E0   3.270212219909E-1    1.437621244848E0    3.935900556827E0    4.593241007211E0    1.029378403088E1
    6.850000000000E0   3.323445488848E-1    1.423639487516E0    3.926041239011E0    4.585516933908E0    1.026754220932E1
    6.900000000000E0   3.375767762532E-1    1.410021604690E0    3.915931262414E0    4.577904507148E0    1.024143415051E1
    6.950000000000E0   3.427171419219E-1    1.396765039786E0    3.905579788328E0    4.570391077102E0    1.021545304714E1
    7.000000000000E0   3.477649905525E-1    1.383866921606E0    3.894995813054E0    4.562964731277E0    1.018959245649E1
    7.050000000000E0   3.527197683140E-1    1.371324082510E0    3.884188168986E0    4.555614251035E0    1.016384627085E1
    7.100000000000E0   3.575810186309E-1    1.359133076638E0    3.873165525470E0    4.548329071400E0    1.013820869214E1
    7.150000000000E0   3.623483768951E-1    1.347290198098E0    3.861936390025E0    4.541099243668E0    1.011267420869E1
    7.200000000000E0   3.670215663572E-1    1.335791498934E0    3.850509109424E0    4.533915400427E0    1.008723757514E1
    7.250000000000E0   3.716003940757E-1    1.324632807066E0    3.838891870825E0    4.526768722959E0    1.006189379493E1
    7.300000000000E0   3.760847466478E-1    1.313809743655E0    3.827092702977E0    4.519650910621E0    1.003663810390E1
    7.350000000000E0   3.804745862587E-1    1.303317740490E0    3.815119477460E0    4.512554152640E0    1.001146595685E1
    7.400000000000E0   3.847699474178E-1    1.293152056633E0    3.802979909909E0    4.505471101099E0    9.986373015059E0
    7.450000000000E0   3.889709327041E-1    1.283307794865E0    3.790681561331E0    4.498394846253E0    9.961355135153E0
    7.500000000000E0   3.930777096208E-1    1.273779917485E0    3.778231839496E0    4.491318893054E0    9.936408359656E0
    7.550000000000E0   3.970905074522E-1    1.264563261668E0    3.765638000129E0    4.484237139150E0    9.911528908399E0
    7.600000000000E0   4.010096137941E-1    1.255652554171E0    3.752907148412E0    4.477143854385E0    9.886713170762E0
    7.650000000000E0   4.048353720133E-1    1.247042425588E0    3.740046240283E0    4.470033661398E0    9.861957699282E0
    7.700000000000E0   4.085681776820E-1    1.238727423852E0    3.727062083850E0    4.462901517377E0    9.837259202762E0
    7.750000000000E0   4.122084760646E-1    1.230702027181E0    3.713961340894E0    4.455742697112E0    9.812614541251E0
    7.800000000000E0   4.157567595760E-1    1.222960656510E0    3.700750528210E0    4.448552776753E0    9.788020721049E0
    7.850000000000E0   4.192135650055E-1    1.215497687010E0    3.687436019067E0    4.441327618696E0    9.763474889779E0
    7.900000000000E0   4.225794710023E-1    1.208307459278E0    3.674024044706E0    4.434063357340E0    9.738974332326E0
    7.950000000000E0   4.258550961349E-1    1.201384289739E0    3.660520695791E0    4.426756385390E0    9.714516467055E0
    8.000000000000E0   4.290410958150E-1    1.194722480369E0    3.646931923876E0    4.419403341355E0    9.690098841415E0
    8.050000000000E0   4.321381607683E-1    1.188316328001E0    3.633263542900E0    4.412001097448E0    9.665719129117E0
    8.100000000000E0   4.351470146740E-1    1.182160132832E0    3.619521230704E0    4.404546748139E0    9.641375126348E0
    8.150000000000E0   4.380684120548E-1    1.176248206494E0    3.605710530498E0    4.397037599498E0    9.617064748544E0
