#             E [au]         delta_0 [1]         delta_1 [1]
    0.000000000000E0   -0.000000000000E0                 NaN
   5.000000000000E-4  -1.046388805818E-1  -4.054908033511E-4
   1.000000000000E-3  -1.479707606034E-1  -1.138978522997E-3
   1.500000000000E-3  -1.812129880247E-1  -2.078115733667E-3
   2.000000000000E-3  -2.092311961836E-1  -3.177769294405E-3
   2.500000000000E-3  -2.339101970429E-1  -4.411218790869E-3
   3.000000000000E-3  -2.562167100213E-1  -5.760071171244E-3
   3.500000000000E-3  -2.767250531811E-1  -7.210594591809E-3
   4.000000000000E-3  -2.958094537750E-1  -8.751998148577E-3
   4.500000000000E-3  -3.137298696057E-1  -1.037549720451E-2
   5.000000000000E-3  -3.306755878566E-1  -1.207375359313E-2
   5.500000000000E-3  -3.467895151457E-1  -1.384051596872E-2
   6.000000000000E-3  -3.621826834794E-1  -1.567037615765E-2
   6.500000000000E-3  -3.769433969011E-1  -1.755859704477E-2
   7.000000000000E-3  -3.911432569298E-1  -1.950098683549E-2
   7.500000000000E-3  -4.048412775064E-1  -2.149380461729E-2
   8.000000000000E-3  -4.180867815377E-1  -2.353368772317E-2
   8.500000000000E-3  -4.309214928786E-1  -2.561759478891E-2
   9.000000000000E-3  -4.433810811709E-1  -2.774276030065E-2
   9.500000000000E-3  -4.554963249316E-1  -2.990665780617E-2
   1.000000000000E-2  -4.672940021550E-1  -3.210696973547E-2
   1.050000000000E-2  -4.787975826416E-1  -3.434156232503E-2
   1.100000000000E-2  -4.900277735327E-1  -3.660846464166E-2
   1.150000000000E-2  -5.010029543031E-1  -3.890585078722E-2
   1.200000000000E-2  -5.117395274971E-1  -4.123202474653E-2
   1.250000000000E-2  -5.222522042771E-1  -4.358540735135E-2
   1.300000000000E-2  -5.325542389728E-1  -4.596452497681E-2
   1.350000000000E-2  -5.426576235690E-1  -4.836799976682E-2
   1.400000000000E-2  -5.525732497603E-1  -5.079454097892E-2
   1.450000000000E-2  -5.623110454946E-1  -5.324293744085E-2
   1.500000000000E-2  -5.718800902279E-1  -5.571205085409E-2
   1.550000000000E-2  -5.812887131734E-1  -5.820080982953E-2
   1.600000000000E-2  -5.905445773285E-1  -6.070820459276E-2
   1.650000000000E-2  -5.996547518198E-1  -6.323328222631E-2
   1.700000000000E-2  -6.086257744225E-1  -6.577514239170E-2
   1.750000000000E-2  -6.174637058477E-1  -6.833293350246E-2
   1.800000000000E-2  -6.261741771314E-1  -7.090584922572E-2
   1.850000000000E-2  -6.347624310851E-1  -7.349312531793E-2
   1.900000000000E-2  -6.432333588746E-1  -7.609403679834E-2
   1.950000000000E-2  -6.515915320460E-1  -7.870789525922E-2
   2.000000000000E-2  -6.598412311508E-1  -8.133404656600E-2
   2.050000000000E-2  -6.679864710067E-1  -8.397186857136E-2
   2.100000000000E-2  -6.760310232150E-1  -8.662076918152E-2
   2.150000000000E-2  -6.839784363388E-1  -8.928018450526E-2
   2.200000000000E-2  -6.918320539451E-1  -9.194957708613E-2
   2.250000000000E-2  -6.995950307881E-1  -9.462843440450E-2
   2.300000000000E-2  -7.072703474598E-1  -9.731626736268E-2
   2.350000000000E-2  -7.148608235188E-1  -1.000126090312E-1
   2.400000000000E-2  -7.223691294512E-1  -1.027170132851E-1
   2.450000000000E-2  -7.297977974519E-1  -1.054290537574E-1
   2.500000000000E-2  -7.371492312639E-1  -1.081483226555E-1
   2.550000000000E-2  -7.444257151183E-1  -1.108744298788E-1
   2.600000000000E-2  -7.516294219024E-1  -1.136070019567E-1
   2.650000000000E-2  -7.587624206277E-1  -1.163456812726E-1
   2.700000000000E-2  -7.658266831763E-1  -1.190901252080E-1
   2.750000000000E-2  -7.728240906567E-1  -1.218400053637E-1
   2.800000000000E-2  -7.797564391687E-1  -1.245950068919E-1
   2.850000000000E-2  -7.866254449507E-1  -1.273548277602E-1
   2.900000000000E-2  -7.934327494097E-1  -1.301191781996E-1
   2.950000000000E-2  -8.001799235162E-1  -1.328877800265E-1
   3.000000000000E-2  -8.068684720351E-1  -1.356603661925E-1
   3.050000000000E-2  -8.134998373220E-1  -1.384366801318E-1
   3.100000000000E-2  -8.200754028834E-1  -1.412164754085E-1
   3.150000000000E-2  -8.265964967126E-1  -1.439995150979E-1
   3.200000000000E-2  -8.330643943735E-1  -1.467855715084E-1
   3.250000000000E-2  -8.394803218048E-1  -1.495744256614E-1
   3.300000000000E-2  -8.458454579897E-1  -1.523658668887E-1
   3.350000000000E-2  -8.521609374733E-1  -1.551596925642E-1
   3.400000000000E-2  -8.584278526337E-1  -1.579557076368E-1
   3.450000000000E-2  -8.646472559017E-1  -1.607537243988E-1
   3.500000000000E-2  -8.708201616679E-1  -1.635535620923E-1
   3.550000000000E-2  -8.769475483132E-1  -1.663550466784E-1
   3.600000000000E-2  -8.830303598483E-1  -1.691580104721E-1
   3.650000000000E-2  -8.890695076744E-1  -1.719622919903E-1
   3.700000000000E-2  -8.950658720980E-1  -1.747677355654E-1
   3.750000000000E-2  -9.010203037660E-1  -1.775741912195E-1
   3.800000000000E-2  -9.069336251589E-1  -1.803815143523E-1
   3.850000000000E-2  -9.128066316883E-1  -1.831895655730E-1
   3.900000000000E-2  -9.186400931463E-1  -1.859982104746E-1
   3.950000000000E-2  -9.244347546485E-1  -1.888073193992E-1
   4.000000000000E-2  -9.301913378923E-1  -1.916167673326E-1
   4.050000000000E-2  -9.359105420534E-1  -1.944264336425E-1
   4.100000000000E-2  -9.415930447863E-1  -1.972362019490E-1
   4.150000000000E-2  -9.472395032059E-1  -2.000459599583E-1
   4.200000000000E-2  -9.528505546398E-1  -2.028555992958E-1
   4.250000000000E-2  -9.584268175633E-1  -2.056650153539E-1
   4.300000000000E-2  -9.639688922708E-1  -2.084741071643E-1
   4.350000000000E-2  -9.694773616731E-1  -2.112827772501E-1
   4.400000000000E-2  -9.749527920039E-1  -2.140909315105E-1
   4.450000000000E-2  -9.803957334130E-1  -2.168984790854E-1
   4.500000000000E-2  -9.858067206691E-1  -2.197053321830E-1
   4.550000000000E-2  -9.911862737250E-1  -2.225114061198E-1
   4.600000000000E-2  -9.965348982657E-1  -2.253166190200E-1
   4.650000000000E-2   -1.001853086313E0  -2.281208918515E-1
   4.700000000000E-2   -1.007141316627E0  -2.309241482609E-1
   4.750000000000E-2   -1.012400055309E0  -2.337263144862E-1
   4.800000000000E-2   -1.017629756223E0  -2.365273192966E-1
   4.850000000000E-2   -1.022830861442E0  -2.393270938452E-1
   4.900000000000E-2   -1.028003801641E0  -2.421255716440E-1
   4.950000000000E-2   -1.033148996537E0  -2.449226884461E-1
   5.000000000000E-2   -1.038266855310E0  -2.477183821918E-1
   5.050000000000E-2   -1.043357776861E0  -2.505125928920E-1
   5.100000000000E-2   -1.048422150290E0  -2.533052626207E-1
   5.150000000000E-2   -1.053460355148E0  -2.560963353815E-1
   5.200000000000E-2   -1.058472761805E0  -2.588857570934E-1
   5.250000000000E-2   -1.063459731720E0  -2.616734754892E-1
   5.300000000000E-2   -1.068421617762E0  -2.644594400885E-1
   5.350000000000E-2   -1.073358764508E0  -2.672436020677E-1
   5.400000000000E-2   -1.078271508459E0  -2.700259143334E-1
   5.450000000000E-2   -1.083160178370E0  -2.728063313220E-1
   5.500000000000E-2   -1.088025095426E0  -2.755848090522E-1
   5.550000000000E-2   -1.092866573543E0  -2.783613050224E-1
   5.600000000000E-2   -1.097684919566E0  -2.811357781705E-1
   5.650000000000E-2   -1.102480433489E0  -2.839081888712E-1
   5.700000000000E-2   -1.107253408683E0  -2.866784987865E-1
   5.750000000000E-2   -1.112004132065E0  -2.894466709483E-1
   5.800000000000E-2   -1.116732884349E0  -2.922126696332E-1
   5.850000000000E-2   -1.121439940169E0  -2.949764603406E-1
   5.900000000000E-2   -1.126125568296E0  -2.977380097704E-1
   5.950000000000E-2   -1.130790031817E0  -3.004972857753E-1
   6.000000000000E-2   -1.135433588268E0  -3.032542572987E-1
   6.050000000000E-2   -1.140056489845E0  -3.060088943971E-1
   6.100000000000E-2   -1.144658983529E0  -3.087611681690E-1
   6.150000000000E-2   -1.149241311202E0  -3.115110506847E-1
   6.200000000000E-2   -1.153803709851E0  -3.142585150598E-1
   6.250000000000E-2   -1.158346411683E0  -3.170035353128E-1
   6.300000000000E-2   -1.162869644239E0  -3.197460864068E-1
   6.350000000000E-2   -1.167373630552E0  -3.224861441964E-1
   6.400000000000E-2   -1.171858589252E0  -3.252236854185E-1
   6.450000000000E-2   -1.176324734687E0  -3.279586876195E-1
   6.500000000000E-2   -1.180772277049E0  -3.306911291689E-1
   6.550000000000E-2   -1.185201422491E0  -3.334209892558E-1
   6.600000000000E-2   -1.189612373206E0  -3.361482477998E-1
   6.650000000000E-2   -1.194005327538E0  -3.388728854891E-1
   6.700000000000E-2   -1.198380480121E0  -3.415948837173E-1
   6.750000000000E-2   -1.202738021931E0  -3.443142245941E-1
   6.800000000000E-2   -1.207078140411E0  -3.470308908846E-1
   6.850000000000E-2   -1.211401019532E0  -3.497448660251E-1
   6.900000000000E-2   -1.215706839895E0  -3.524561341167E-1
   6.950000000000E-2   -1.219995778834E0  -3.551646798424E-1
   7.000000000000E-2   -1.224268010464E0  -3.578704884961E-1
   7.050000000000E-2   -1.228523705794E0  -3.605735459701E-1
   7.100000000000E-2   -1.232763032783E0  -3.632738387175E-1
   7.150000000000E-2   -1.236986156400E0  -3.659713537364E-1
   7.200000000000E-2   -1.241193238762E0  -3.686660785783E-1
   7.250000000000E-2   -1.245384439115E0  -3.713580012676E-1
   7.300000000000E-2   -1.249559913965E0  -3.740471104053E-1
   7.350000000000E-2   -1.253719817133E0  -3.767333950029E-1
   7.400000000000E-2   -1.257864299779E0  -3.794168446053E-1
   7.450000000000E-2   -1.261993510522E0  -3.820974491981E-1
   7.500000000000E-2   -1.266107595472E0  -3.847751992228E-1
   7.550000000000E-2   -1.270206698266E0  -3.874500855348E-1
   7.600000000000E-2   -1.274290960173E0  -3.901220994246E-1
   7.650000000000E-2   -1.278360520110E0  -3.927912326132E-1
   7.700000000000E-2   -1.282415514718E0  -3.954574771921E-1
   7.750000000000E-2   -1.286456078386E0  -3.981208256589E-1
   7.800000000000E-2   -1.290482343333E0  -4.007812708539E-1
   7.850000000000E-2   -1.294494439644E0  -4.034388060436E-1
   7.900000000000E-2   -1.298492495313E0  -4.060934247847E-1
   7.950000000000E-2   -1.302476636292E0  -4.087451210315E-1
   8.000000000000E-2   -1.306446986527E0  -4.113938890364E-1
   8.050000000000E-2   -1.310403668018E0  -4.140397234221E-1
   8.100000000000E-2   -1.314346800863E0  -4.166826190632E-1
   8.150000000000E-2   -1.318276503266E0  -4.193225711888E-1
   8.200000000000E-2   -1.322192891620E0  -4.219595753276E-1
   8.250000000000E-2   -1.326096080512E0  -4.245936272812E-1
   8.300000000000E-2   -1.329986182795E0  -4.272247231445E-1
   8.350000000000E-2   -1.333863309565E0  -4.298528592665E-1
   8.400000000000E-2   -1.337727570293E0  -4.324780323103E-1
   8.450000000000E-2   -1.341579072756E0  -4.351002391358E-1
   8.500000000000E-2   -1.345417923131E0  -4.377194768954E-1
   8.550000000000E-2   -1.349244226023E0  -4.403357429754E-1
   8.600000000000E-2   -1.353058084472E0  -4.429490350229E-1
   8.650000000000E-2   -1.356859600019E0  -4.455593508752E-1
   8.700000000000E-2   -1.360648872716E0  -4.481666885988E-1
   8.750000000000E-2   -1.364426001138E0  -4.507710465377E-1
   8.800000000000E-2   -1.368191082455E0  -4.533724231626E-1
   8.850000000000E-2   -1.371944212429E0  -4.559708172101E-1
   8.900000000000E-2   -1.375685485434E0  -4.585662276094E-1
   8.950000000000E-2   -1.379414994526E0  -4.611586534589E-1
   9.000000000000E-2   -1.383132831439E0  -4.637480940599E-1
   9.050000000000E-2   -1.386839086591E0  -4.663345489097E-1
   9.100000000000E-2   -1.390533849139E0  -4.689180176717E-1
   9.150000000000E-2   -1.394217206983E0  -4.714985001893E-1
   9.200000000000E-2   -1.397889246839E0  -4.740759964798E-1
   9.250000000000E-2   -1.401550054180E0  -4.766505066983E-1
   9.300000000000E-2   -1.405199713335E0  -4.792220312022E-1
   9.350000000000E-2   -1.408838307466E0  -4.817905704672E-1
   9.400000000000E-2   -1.412465918599E0  -4.843561251278E-1
   9.450000000000E-2   -1.416082627642E0  -4.869186959711E-1
   9.500000000000E-2   -1.419688514428E0  -4.894782839379E-1
   9.550000000000E-2   -1.423283657708E0  -4.920348900907E-1
   9.600000000000E-2   -1.426868135184E0  -4.945885156185E-1
   9.650000000000E-2   -1.430442023519E0  -4.971391618536E-1
   9.700000000000E-2   -1.434005398366E0  -4.996868302787E-1
   9.750000000000E-2   -1.437558334372E0  -5.022315224547E-1
   9.800000000000E-2   -1.441100905222E0  -5.047732400773E-1
   9.850000000000E-2   -1.444633183620E0  -5.073119849746E-1
   9.900000000000E-2   -1.448155241333E0  -5.098477590742E-1
   9.950000000000E-2   -1.451667149208E0  -5.123805644131E-1
   1.000000000000E-1   -1.455168977152E0  -5.149104031319E-1
   1.005000000000E-1   -1.458660794212E0  -5.174372774878E-1
   1.010000000000E-1   -1.462142668526E0  -5.199611898285E-1
   1.015000000000E-1   -1.465614667376E0  -5.224821425984E-1
   1.020000000000E-1   -1.469076857199E0  -5.250001383464E-1
   1.025000000000E-1   -1.472529303572E0  -5.275151796839E-1
   1.030000000000E-1   -1.475972071259E0  -5.300272693679E-1
   1.035000000000E-1   -1.479405224239E0  -5.325364101703E-1
   1.040000000000E-1   -1.482828825643E0  -5.350426050161E-1
   1.045000000000E-1   -1.486242937886E0  -5.375458568536E-1
   1.050000000000E-1   -1.489647622550E0  -5.400461687398E-1
   1.055000000000E-1   -1.493042940498E0  -5.425435438232E-1
   1.060000000000E-1   -1.496428951832E0  -5.450379852773E-1
   1.065000000000E-1   -1.499805715924E0  -5.475294964105E-1
   1.070000000000E-1   -1.503173291428E0  -5.500180805392E-1
   1.075000000000E-1   -1.506531736300E0  -5.525037411005E-1
   1.080000000000E-1   -1.509881107760E0  -5.549864815618E-1
   1.085000000000E-1   -1.513221462380E0  -5.574663054692E-1
   1.090000000000E-1   -1.516552856032E0  -5.599432164083E-1
   1.095000000000E-1   -1.519875343936E0  -5.624172180696E-1
   1.100000000000E-1   -1.523188980647E0  -5.648883141609E-1
   1.105000000000E-1   -1.526493820089E0  -5.673565084609E-1
   1.110000000000E-1   -1.529789915535E0  -5.698218048015E-1
   1.115000000000E-1   -1.533077319628E0  -5.722842070744E-1
   1.120000000000E-1   -1.536356084425E0  -5.747437191992E-1
   1.125000000000E-1   -1.539626261354E0  -5.772003451710E-1
   1.130000000000E-1   -1.542887901248E0  -5.796540890207E-1
   1.135000000000E-1   -1.546141054342E0  -5.821049548252E-1
   1.140000000000E-1   -1.549385770315E0  -5.845529467073E-1
   1.145000000000E-1   -1.552622098257E0  -5.869980688342E-1
   1.150000000000E-1   -1.555850086720E0  -5.894403254012E-1
   1.155000000000E-1   -1.559069783661E0  -5.918797206724E-1
   1.160000000000E-1   -1.562281236538E0  -5.943162589268E-1
   1.165000000000E-1   -1.565484492232E0  -5.967499444794E-1
   1.170000000000E-1   -1.568679597113E0  -5.991807816989E-1
   1.175000000000E-1    1.569726056557E0  -6.016087749871E-1
   1.180000000000E-1    1.566547116256E0  -6.040339287458E-1
   1.185000000000E-1    1.563376190768E0  -6.064562474546E-1
   1.190000000000E-1    1.560213235762E0  -6.088757356070E-1
   1.195000000000E-1    1.557058207402E0  -6.112923977170E-1
   1.200000000000E-1    1.553911062345E0  -6.137062383251E-1
   1.205000000000E-1    1.550771757721E0  -6.161172620262E-1
   1.210000000000E-1    1.547640251130E0  -6.185254734170E-1
   1.215000000000E-1    1.544516500654E0  -6.209308771162E-1
   1.220000000000E-1    1.541400464807E0  -6.233334778046E-1
   1.225000000000E-1    1.538292102585E0  -6.257332801413E-1
   1.230000000000E-1    1.535191373404E0  -6.281302888335E-1
   1.235000000000E-1    1.532098237124E0  -6.305245086000E-1
   1.240000000000E-1    1.529012654072E0  -6.329159441965E-1
   1.245000000000E-1    1.525934584957E0  -6.353046003656E-1
   1.250000000000E-1    1.522863990949E0  -6.376904819103E-1
   1.255000000000E-1    1.519800833594E0  -6.400735936167E-1
   1.260000000000E-1    1.516745074908E0  -6.424539403206E-1
   1.265000000000E-1    1.513696677252E0  -6.448315268473E-1
   1.270000000000E-1    1.510655603418E0  -6.472063580450E-1
   1.275000000000E-1    1.507621816598E0  -6.495784387810E-1
   1.280000000000E-1    1.504595280347E0  -6.519477739448E-1
   1.285000000000E-1    1.501575958638E0  -6.543143684140E-1
   1.290000000000E-1    1.498563815794E0  -6.566782271042E-1
   1.295000000000E-1    1.495558816541E0  -6.590393549454E-1
   1.300000000000E-1    1.492560925961E0  -6.613977568460E-1
   1.305000000000E-1    1.489570109496E0  -6.637534377623E-1
   1.310000000000E-1    1.486586332953E0  -6.661064026383E-1
   1.315000000000E-1    1.483609562504E0  -6.684566564449E-1
   1.320000000000E-1    1.480639764656E0  -6.708042041369E-1
   1.325000000000E-1    1.477676906276E0  -6.731490506947E-1
   1.330000000000E-1    1.474720954568E0  -6.754912011210E-1
   1.335000000000E-1    1.471771877081E0  -6.778306603920E-1
   1.340000000000E-1    1.468829641691E0  -6.801674335168E-1
   1.345000000000E-1    1.465894216607E0  -6.825015254820E-1
   1.350000000000E-1    1.462965570356E0  -6.848329413232E-1
   1.355000000000E-1    1.460043671810E0  -6.871616860498E-1
   1.360000000000E-1    1.457128490138E0  -6.894877646770E-1
   1.365000000000E-1    1.454219994828E0  -6.918111822319E-1
   1.370000000000E-1    1.451318155684E0  -6.941319437398E-1
   1.375000000000E-1    1.448422942815E0  -6.964500542334E-1
   1.380000000000E-1    1.445534326628E0  -6.987655187548E-1
   1.385000000000E-1    1.442652277834E0  -7.010783423329E-1
   1.390000000000E-1    1.439776767445E0  -7.033885300046E-1
   1.395000000000E-1    1.436907766749E0  -7.056960868182E-1
   1.400000000000E-1    1.434045247339E0  -7.080010178061E-1
   1.405000000000E-1    1.431189181094E0  -7.103033280073E-1
   1.410000000000E-1    1.428339540164E0  -7.126030224700E-1
   1.415000000000E-1    1.425496296998E0  -7.149001062266E-1
   1.420000000000E-1    1.422659424291E0  -7.171945843308E-1
   1.425000000000E-1    1.419828895036E0  -7.194864618154E-1
   1.430000000000E-1    1.417004682487E0  -7.217757437177E-1
   1.435000000000E-1    1.414186760166E0  -7.240624350639E-1
   1.440000000000E-1    1.411375101863E0  -7.263465409096E-1
   1.445000000000E-1    1.408569681612E0  -7.286280662777E-1
   1.450000000000E-1    1.405770473728E0  -7.309070161942E-1
   1.455000000000E-1    1.402977452765E0  -7.331833956846E-1
   1.460000000000E-1    1.400190593533E0  -7.354572097881E-1
   1.465000000000E-1    1.397409871096E0  -7.377284635031E-1
   1.470000000000E-1    1.394635260765E0  -7.399971618631E-1
   1.475000000000E-1    1.391866738087E0  -7.422633098702E-1
   1.480000000000E-1    1.389104278859E0  -7.445269125439E-1
   1.485000000000E-1    1.386347859111E0  -7.467879748776E-1
   1.490000000000E-1    1.383597455108E0  -7.490465018726E-1
   1.495000000000E-1    1.380853043357E0  -7.513024985291E-1
   1.500000000000E-1    1.378114600595E0  -7.535559698219E-1
   1.505000000000E-1    1.375382103777E0  -7.558069207541E-1
   1.510000000000E-1    1.372655530098E0  -7.580553562867E-1
   1.515000000000E-1    1.369934856967E0  -7.603012813928E-1
   1.520000000000E-1    1.367220062024E0  -7.625447010497E-1
   1.525000000000E-1    1.364511123124E0  -7.647856201949E-1
   1.530000000000E-1    1.361808018336E0  -7.670240437965E-1
   1.535000000000E-1    1.359110725951E0  -7.692599767978E-1
   1.540000000000E-1    1.356419224471E0  -7.714934241328E-1
   1.545000000000E-1    1.353733492601E0  -7.737243907293E-1
   1.550000000000E-1    1.351053509265E0  -7.759528815197E-1
   1.555000000000E-1    1.348379253598E0  -7.781789014212E-1
   1.560000000000E-1    1.345710704916E0  -7.804024553345E-1
   1.565000000000E-1    1.343047842759E0  -7.826235481569E-1
   1.570000000000E-1    1.340390646866E0  -7.848421847927E-1
   1.575000000000E-1    1.337739097167E0  -7.870583701188E-1
   1.580000000000E-1    1.335093173794E0  -7.892721090174E-1
   1.585000000000E-1    1.332452857075E0  -7.914834063475E-1
   1.590000000000E-1    1.329818127526E0  -7.936922669658E-1
   1.595000000000E-1    1.327188965854E0  -7.958986957326E-1
   1.600000000000E-1    1.324565352965E0  -7.981026974876E-1
   1.605000000000E-1    1.321947269935E0  -8.003042770606E-1
   1.610000000000E-1    1.319334698049E0  -8.025034392690E-1
   1.615000000000E-1    1.316727618753E0  -8.047001889313E-1
   1.620000000000E-1    1.314126013690E0  -8.068945308509E-1
   1.625000000000E-1    1.311529864679E0  -8.090864698243E-1
