#             R [au]           V(R) [au]
    0.000000000000E0   -2.999876590196E0
   3.334444814938E-3   -2.999865758833E0
   6.668889629877E-3   -2.999838202364E0
   1.000333444481E-2   -2.999793920364E0
   1.333777925975E-2   -2.999732912670E0
   1.667222407469E-2   -2.999655179384E0
   2.000666888963E-2   -2.999560720872E0
   2.334111370457E-2   -2.999449537763E0
   2.667555851951E-2   -2.999321630950E0
   3.001000333444E-2   -2.999177001590E0
   3.334444814938E-2   -2.999015651101E0
   3.667889296432E-2   -2.998837581165E0
   4.001333777926E-2   -2.998642793726E0
   4.334778259420E-2   -2.998431290990E0
   4.668222740914E-2   -2.998203075425E0
   5.001667222407E-2   -2.997958149759E0
   5.335111703901E-2   -2.997696516983E0
   5.668556185395E-2   -2.997418180349E0
   6.002000666889E-2   -2.997123143366E0
   6.335445148383E-2   -2.996811409807E0
   6.668889629877E-2   -2.996482983703E0
   7.002334111370E-2   -2.996137869342E0
   7.335778592864E-2   -2.995776071275E0
   7.669223074358E-2   -2.995397594309E0
   8.002667555852E-2   -2.995002443510E0
   8.336112037346E-2   -2.994590624199E0
   8.669556518840E-2   -2.994162141958E0
   9.003001000333E-2   -2.993717002624E0
   9.336445481827E-2   -2.993255212289E0
   9.669889963321E-2   -2.992776777303E0
   1.000333444481E-1   -2.992281704269E0
   1.033677892631E-1   -2.991770000047E0
   1.067022340780E-1   -2.991241671751E0
   1.100366788930E-1   -2.990696726747E0
   1.133711237079E-1   -2.990135172655E0
   1.167055685228E-1   -2.989557017350E0
   1.200400133378E-1   -2.988962268956E0
   1.233744581527E-1   -2.988350935850E0
   1.267089029677E-1   -2.987723026661E0
   1.300433477826E-1   -2.987078550266E0
   1.333777925975E-1   -2.986417515796E0
   1.367122374125E-1   -2.985739932626E0
   1.400466822274E-1   -2.985045810385E0
   1.433811270423E-1   -2.984335158946E0
   1.467155718573E-1   -2.983607988432E0
   1.500500166722E-1   -2.982864309211E0
   1.533844614872E-1   -2.982104131898E0
   1.567189063021E-1   -2.981327467355E0
   1.600533511170E-1   -2.980534326686E0
   1.633877959320E-1   -2.979724721241E0
   1.667222407469E-1   -2.978898662612E0
   1.700566855619E-1   -2.978056162637E0
   1.733911303768E-1   -2.977197233391E0
   1.767255751917E-1   -2.976321887195E0
   1.800600200067E-1   -2.975430136608E0
   1.833944648216E-1   -2.974521994429E0
   1.867289096365E-1   -2.973597473697E0
   1.900633544515E-1   -2.972656587688E0
   1.933977992664E-1   -2.971699349917E0
   1.967322440814E-1   -2.970725774134E0
   2.000666888963E-1   -2.969735874327E0
   2.034011337112E-1   -2.968729664716E0
   2.067355785262E-1   -2.967707159759E0
   2.100700233411E-1   -2.966668374145E0
   2.134044681561E-1   -2.965613322796E0
   2.167389129710E-1   -2.964542020865E0
   2.200733577859E-1   -2.963454483737E0
   2.234078026009E-1   -2.962350727028E0
   2.267422474158E-1   -2.961230766580E0
   2.300766922307E-1   -2.960094618466E0
   2.334111370457E-1   -2.958942298984E0
   2.367455818606E-1   -2.957773824660E0
   2.400800266756E-1   -2.956589212245E0
   2.434144714905E-1   -2.955388478714E0
   2.467489163054E-1   -2.954171641266E0
   2.500833611204E-1   -2.952938717322E0
   2.534178059353E-1   -2.951689724525E0
   2.567522507503E-1   -2.950424680739E0
   2.600866955652E-1   -2.949143604045E0
   2.634211403801E-1   -2.947846512747E0
   2.667555851951E-1   -2.946533425362E0
   2.700900300100E-1   -2.945204360626E0
   2.734244748249E-1   -2.943859337490E0
   2.767589196399E-1   -2.942498375120E0
   2.800933644548E-1   -2.941121492894E0
   2.834278092698E-1   -2.939728710403E0
   2.867622540847E-1   -2.938320047448E0
   2.900966988996E-1   -2.936895524043E0
   2.934311437146E-1   -2.935455160408E0
   2.967655885295E-1   -2.933998976972E0
   3.001000333444E-1   -2.932526994370E0
   3.034344781594E-1   -2.931039233444E0
   3.067689229743E-1   -2.929535715239E0
   3.101033677893E-1   -2.928016461005E0
   3.134378126042E-1   -2.926481492191E0
   3.167722574191E-1   -2.924930830451E0
   3.201067022341E-1   -2.923364497634E0
   3.234411470490E-1   -2.921782515792E0
   3.267755918640E-1   -2.920184907171E0
   3.301100366789E-1   -2.918571694214E0
   3.334444814938E-1   -2.916942899561E0
   3.367789263088E-1   -2.915298546042E0
   3.401133711237E-1   -2.913638656682E0
   3.434478159386E-1   -2.911963254695E0
   3.467822607536E-1   -2.910272363486E0
   3.501167055685E-1   -2.908566006650E0
   3.534511503835E-1   -2.906844207965E0
   3.567855951984E-1   -2.905106991398E0
   3.601200400133E-1   -2.903354381101E0
   3.634544848283E-1   -2.901586401407E0
   3.667889296432E-1   -2.899803076832E0
   3.701233744582E-1   -2.898004432072E0
   3.734578192731E-1   -2.896190492004E0
   3.767922640880E-1   -2.894361281681E0
   3.801267089030E-1   -2.892516826332E0
   3.834611537179E-1   -2.890657151362E0
   3.867955985328E-1   -2.888782282350E0
   3.901300433478E-1   -2.886892245047E0
   3.934644881627E-1   -2.884987065373E0
   3.967989329777E-1   -2.883066769420E0
   4.001333777926E-1   -2.881131383447E0
   4.034678226075E-1   -2.879180933877E0
   4.068022674225E-1   -2.877215447303E0
   4.101367122374E-1   -2.875234950476E0
   4.134711570524E-1   -2.873239470314E0
   4.168056018673E-1   -2.871229033892E0
   4.201400466822E-1   -2.869203668445E0
   4.234744914972E-1   -2.867163401366E0
   4.268089363121E-1   -2.865108260205E0
   4.301433811270E-1   -2.863038272664E0
   4.334778259420E-1   -2.860953466601E0
   4.368122707569E-1   -2.858853870021E0
   4.401467155719E-1   -2.856739511084E0
   4.434811603868E-1   -2.854610418095E0
   4.468156052017E-1   -2.852466619506E0
   4.501500500167E-1   -2.850308143915E0
   4.534844948316E-1   -2.848135020064E0
   4.568189396465E-1   -2.845947276835E0
   4.601533844615E-1   -2.843744943251E0
   4.634878292764E-1   -2.841528048476E0
   4.668222740914E-1   -2.839296621808E0
   4.701567189063E-1   -2.837050692681E0
   4.734911637212E-1   -2.834790290665E0
   4.768256085362E-1   -2.832515445459E0
   4.801600533511E-1   -2.830226186894E0
   4.834944981661E-1   -2.827922544930E0
   4.868289429810E-1   -2.825604549654E0
   4.901633877959E-1   -2.823272231278E0
   4.934978326109E-1   -2.820925620137E0
   4.968322774258E-1   -2.818564746690E0
   5.001667222407E-1   -2.816189641515E0
   5.035011670557E-1   -2.813800335309E0
   5.068356118706E-1   -2.811396858884E0
   5.101700566856E-1   -2.808979243170E0
   5.135045015005E-1   -2.806547519208E0
   5.168389463154E-1   -2.804101718153E0
   5.201733911304E-1   -2.801641871266E0
   5.235078359453E-1   -2.799168009921E0
   5.268422807603E-1   -2.796680165593E0
   5.301767255752E-1   -2.794178369866E0
   5.335111703901E-1   -2.791662654424E0
   5.368456152051E-1   -2.789133051053E0
   5.401800600200E-1   -2.786589591637E0
   5.435145048349E-1   -2.784032308159E0
   5.468489496499E-1   -2.781461232696E0
   5.501833944648E-1   -2.778876397419E0
   5.535178392798E-1   -2.776277834591E0
   5.568522840947E-1   -2.773665576565E0
   5.601867289096E-1   -2.771039655781E0
   5.635211737246E-1   -2.768400104767E0
   5.668556185395E-1   -2.765746956134E0
   5.701900633545E-1   -2.763080242577E0
   5.735245081694E-1   -2.760399996868E0
   5.768589529843E-1   -2.757706251863E0
   5.801933977993E-1   -2.754999040491E0
   5.835278426142E-1   -2.752278395757E0
   5.868622874291E-1   -2.749544350739E0
   5.901967322441E-1   -2.746796938588E0
   5.935311770590E-1   -2.744036192521E0
   5.968656218740E-1   -2.741262145824E0
   6.002000666889E-1   -2.738474831849E0
   6.035345115038E-1   -2.735674284010E0
   6.068689563188E-1   -2.732860535785E0
   6.102034011337E-1   -2.730033620708E0
   6.135378459486E-1   -2.727193572375E0
   6.168722907636E-1   -2.724340424433E0
   6.202067355785E-1   -2.721474210588E0
   6.235411803935E-1   -2.718594964593E0
   6.268756252084E-1   -2.715702720253E0
   6.302100700233E-1   -2.712797511423E0
   6.335445148383E-1   -2.709879371999E0
   6.368789596532E-1   -2.706948335927E0
   6.402134044682E-1   -2.704004437189E0
   6.435478492831E-1   -2.701047709811E0
   6.468822940980E-1   -2.698078187857E0
   6.502167389130E-1   -2.695095905425E0
   6.535511837279E-1   -2.692100896647E0
   6.568856285428E-1   -2.689093195691E0
   6.602200733578E-1   -2.686072836750E0
   6.635545181727E-1   -2.683039854048E0
   6.668889629877E-1   -2.679994281835E0
   6.702234078026E-1   -2.676936154384E0
   6.735578526175E-1   -2.673865505991E0
   6.768922974325E-1   -2.670782370972E0
   6.802267422474E-1   -2.667686783661E0
   6.835611870624E-1   -2.664578778408E0
   6.868956318773E-1   -2.661458389577E0
   6.902300766922E-1   -2.658325651543E0
   6.935645215072E-1   -2.655180598694E0
   6.968989663221E-1   -2.652023265424E0
   7.002334111370E-1   -2.648853686133E0
   7.035678559520E-1   -2.645671895225E0
   7.069023007669E-1   -2.642477927106E0
   7.102367455819E-1   -2.639271816183E0
   7.135711903968E-1   -2.636053596860E0
   7.169056352117E-1   -2.632823303538E0
   7.202400800267E-1   -2.629580970609E0
   7.235745248416E-1   -2.626326632462E0
   7.269089696566E-1   -2.623060323470E0
   7.302434144715E-1   -2.619782077999E0
   7.335778592864E-1   -2.616491930398E0
   7.369123041014E-1   -2.613189915001E0
   7.402467489163E-1   -2.609876066122E0
   7.435811937312E-1   -2.606550418059E0
   7.469156385462E-1   -2.603213005082E0
   7.502500833611E-1   -2.599863861443E0
   7.535845281761E-1   -2.596503021362E0
   7.569189729910E-1   -2.593130519036E0
   7.602534178059E-1   -2.589746388628E0
   7.635878626209E-1   -2.586350664271E0
   7.669223074358E-1   -2.582943380064E0
   7.702567522508E-1   -2.579524570067E0
   7.735911970657E-1   -2.576094268306E0
   7.769256418806E-1   -2.572652508763E0
   7.802600866956E-1   -2.569199325381E0
   7.835945315105E-1   -2.565734752057E0
   7.869289763254E-1   -2.562258822643E0
   7.902634211404E-1   -2.558771570943E0
   7.935978659553E-1   -2.555273030710E0
   7.969323107703E-1   -2.551763235646E0
   8.002667555852E-1   -2.548242219399E0
   8.036012004001E-1   -2.544710015561E0
   8.069356452151E-1   -2.541166657667E0
   8.102700900300E-1   -2.537612179190E0
   8.136045348449E-1   -2.534046613545E0
   8.169389796599E-1   -2.530469994080E0
   8.202734244748E-1   -2.526882354081E0
   8.236078692898E-1   -2.523283726763E0
   8.269423141047E-1   -2.519674145273E0
   8.302767589196E-1   -2.516053642690E0
   8.336112037346E-1   -2.512422252015E0
   8.369456485495E-1   -2.508780006177E0
   8.402800933645E-1   -2.505126938028E0
   8.436145381794E-1   -2.501463080341E0
   8.469489829943E-1   -2.497788465808E0
   8.502834278093E-1   -2.494103127040E0
   8.536178726242E-1   -2.490407096562E0
   8.569523174391E-1   -2.486700406815E0
   8.602867622541E-1   -2.482983090150E0
   8.636212070690E-1   -2.479255178831E0
   8.669556518840E-1   -2.475516705028E0
   8.702900966989E-1   -2.471767700819E0
   8.736245415138E-1   -2.468008198187E0
   8.769589863288E-1   -2.464238229019E0
   8.802934311437E-1   -2.460457825102E0
   8.836278759587E-1   -2.456667018124E0
   8.869623207736E-1   -2.452865839670E0
   8.902967655885E-1   -2.449054321222E0
   8.936312104035E-1   -2.445232494156E0
   8.969656552184E-1   -2.441400389741E0
   9.003001000333E-1   -2.437558039139E0
   9.036345448483E-1   -2.433705473399E0
   9.069689896632E-1   -2.429842723460E0
   9.103034344782E-1   -2.425969820145E0
   9.136378792931E-1   -2.422086794164E0
   9.169723241080E-1   -2.418193676108E0
   9.203067689230E-1   -2.414290496451E0
   9.236412137379E-1   -2.410377285545E0
   9.269756585529E-1   -2.406454073624E0
   9.303101033678E-1   -2.402520890794E0
   9.336445481827E-1   -2.398577767039E0
   9.369789929977E-1   -2.394624732216E0
   9.403134378126E-1   -2.390661816054E0
   9.436478826275E-1   -2.386689048154E0
   9.469823274425E-1   -2.382706457984E0
   9.503167722574E-1   -2.378714074880E0
   9.536512170724E-1   -2.374711928047E0
   9.569856618873E-1   -2.370700046551E0
   9.603201067022E-1   -2.366678459325E0
   9.636545515172E-1   -2.362647195161E0
   9.669889963321E-1   -2.358606282714E0
   9.703234411470E-1   -2.354555750498E0
   9.736578859620E-1   -2.350495626884E0
   9.769923307769E-1   -2.346425940100E0
   9.803267755919E-1   -2.342346718231E0
   9.836612204068E-1   -2.338257989213E0
   9.869956652217E-1   -2.334159780839E0
   9.903301100367E-1   -2.330052120750E0
   9.936645548516E-1   -2.325935036440E0
   9.969989996666E-1   -2.321808555251E0
    1.000333444481E0   -2.317672704374E0
    1.003667889296E0   -2.313527510845E0
    1.007002334111E0   -2.309373001548E0
    1.010336778926E0   -2.305209203212E0
    1.013671223741E0   -2.301036142408E0
    1.017005668556E0   -2.296853845550E0
    1.020340113371E0   -2.292662338895E0
    1.023674558186E0   -2.288461648539E0
    1.027009003001E0   -2.284251800418E0
    1.030343447816E0   -2.280032820308E0
    1.033677892631E0   -2.275804733820E0
    1.037012337446E0   -2.271567566404E0
    1.040346782261E0   -2.267321343346E0
    1.043681227076E0   -2.263066089766E0
    1.047015671891E0   -2.258801830619E0
    1.050350116706E0   -2.254528590691E0
    1.053684561521E0   -2.250246394605E0
    1.057019006335E0   -2.245955266813E0
    1.060353451150E0   -2.241655231598E0
    1.063687895965E0   -2.237346313075E0
    1.067022340780E0   -2.233028535187E0
    1.070356785595E0   -2.228701921708E0
    1.073691230410E0   -2.224366496239E0
    1.077025675225E0   -2.220022282210E0
    1.080360120040E0   -2.215669302877E0
    1.083694564855E0   -2.211307581324E0
    1.087029009670E0   -2.206937140461E0
    1.090363454485E0   -2.202558003025E0
    1.093697899300E0   -2.198170191575E0
    1.097032344115E0   -2.193773728499E0
    1.100366788930E0   -2.189368636008E0
    1.103701233745E0   -2.184954936135E0
    1.107035678560E0   -2.180532650742E0
    1.110370123374E0   -2.176101801509E0
    1.113704568189E0   -2.171662409943E0
    1.117039013004E0   -2.167214497374E0
    1.120373457819E0   -2.162758084953E0
    1.123707902634E0   -2.158293193655E0
    1.127042347449E0   -2.153819844279E0
    1.130376792264E0   -2.149338057443E0
    1.133711237079E0   -2.144847853591E0
    1.137045681894E0   -2.140349252987E0
    1.140380126709E0   -2.135842275720E0
    1.143714571524E0   -2.131326941698E0
    1.147049016339E0   -2.126803270656E0
    1.150383461154E0   -2.122271282147E0
    1.153717905969E0   -2.117730995550E0
    1.157052350784E0   -2.113182430066E0
    1.160386795599E0   -2.108625604719E0
    1.163721240413E0   -2.104060538357E0
    1.167055685228E0   -2.099487249651E0
    1.170390130043E0   -2.094905757096E0
    1.173724574858E0   -2.090316079012E0
    1.177059019673E0   -2.085718233543E0
    1.180393464488E0   -2.081112238659E0
    1.183727909303E0   -2.076498112155E0
    1.187062354118E0   -2.071875871653E0
    1.190396798933E0   -2.067245534601E0
    1.193731243748E0   -2.062607118273E0
    1.197065688563E0   -2.057960639773E0
    1.200400133378E0   -2.053306116033E0
    1.203734578193E0   -2.048643563813E0
    1.207069023008E0   -2.043972999704E0
    1.210403467823E0   -2.039294440128E0
    1.213737912638E0   -2.034607901337E0
    1.217072357452E0   -2.029913399417E0
    1.220406802267E0   -2.025210950285E0
    1.223741247082E0   -2.020500569695E0
    1.227075691897E0   -2.015782273235E0
    1.230410136712E0   -2.011056076326E0
    1.233744581527E0   -2.006321994231E0
    1.237079026342E0   -2.001580042048E0
    1.240413471157E0   -1.996830234716E0
    1.243747915972E0   -1.992072587013E0
    1.247082360787E0   -1.987307113560E0
    1.250416805602E0   -1.982533828819E0
    1.253751250417E0   -1.977752747099E0
    1.257085695232E0   -1.972963882552E0
    1.260420140047E0   -1.968167249179E0
    1.263754584862E0   -1.963362860826E0
    1.267089029677E0   -1.958550731193E0
    1.270423474491E0   -1.953730873827E0
    1.273757919306E0   -1.948903302132E0
    1.277092364121E0   -1.944068029363E0
    1.280426808936E0   -1.939225068632E0
    1.283761253751E0   -1.934374432909E0
    1.287095698566E0   -1.929516135023E0
    1.290430143381E0   -1.924650187663E0
    1.293764588196E0   -1.919776603383E0
    1.297099033011E0   -1.914895394600E0
    1.300433477826E0   -1.910006573597E0
    1.303767922641E0   -1.905110152528E0
    1.307102367456E0   -1.900206143414E0
    1.310436812271E0   -1.895294558151E0
    1.313771257086E0   -1.890375408508E0
    1.317105701901E0   -1.885448706132E0
    1.320440146716E0   -1.880514462546E0
    1.323774591531E0   -1.875572689156E0
    1.327109036345E0   -1.870623397250E0
    1.330443481160E0   -1.865666598003E0
    1.333777925975E0   -1.860702302474E0
    1.337112370790E0   -1.855730521614E0
    1.340446815605E0   -1.850751266268E0
    1.343781260420E0   -1.845764547173E0
    1.347115705235E0   -1.840770374965E0
    1.350450150050E0   -1.835768760177E0
    1.353784594865E0   -1.830759713246E0
    1.357119039680E0   -1.825743244516E0
    1.360453484495E0   -1.820719364234E0
    1.363787929310E0   -1.815688082561E0
    1.367122374125E0   -1.810649409569E0
    1.370456818940E0   -1.805603355246E0
    1.373791263755E0   -1.800549929498E0
    1.377125708570E0   -1.795489142153E0
    1.380460153384E0   -1.790421002963E0
    1.383794598199E0   -1.785345521608E0
    1.387129043014E0   -1.780262707697E0
    1.390463487829E0   -1.775172570772E0
    1.393797932644E0   -1.770075120313E0
    1.397132377459E0   -1.764970365738E0
    1.400466822274E0   -1.759858316407E0
    1.403801267089E0   -1.754738981628E0
    1.407135711904E0   -1.749612370655E0
    1.410470156719E0   -1.744478492697E0
    1.413804601534E0   -1.739337356917E0
    1.417139046349E0   -1.734188972438E0
    1.420473491164E0   -1.729033348343E0
    1.423807935979E0   -1.723870493684E0
    1.427142380794E0   -1.718700417481E0
    1.430476825609E0   -1.713523128726E0
    1.433811270423E0   -1.708338636388E0
    1.437145715238E0   -1.703146949416E0
    1.440480160053E0   -1.697948076744E0
    1.443814604868E0   -1.692742027292E0
    1.447149049683E0   -1.687528809970E0
    1.450483494498E0   -1.682308433685E0
    1.453817939313E0   -1.677080907341E0
    1.457152384128E0   -1.671846239847E0
    1.460486828943E0   -1.666604440115E0
    1.463821273758E0   -1.661355517071E0
    1.467155718573E0   -1.656099479653E0
    1.470490163388E0   -1.650836336817E0
    1.473824608203E0   -1.645566097542E0
    1.477159053018E0   -1.640288770836E0
    1.480493497833E0   -1.635004365733E0
    1.483827942648E0   -1.629712891305E0
    1.487162387462E0   -1.624414356662E0
    1.490496832277E0   -1.619108770957E0
    1.493831277092E0   -1.613796143391E0
    1.497165721907E0   -1.608476483217E0
    1.500500166722E0   -1.603149799742E0
    1.503834611537E0   -1.597816102336E0
    1.507169056352E0   -1.592475400432E0
    1.510503501167E0   -1.587127703534E0
    1.513837945982E0   -1.581773021219E0
    1.517172390797E0   -1.576411363141E0
    1.520506835612E0   -1.571042739039E0
    1.523841280427E0   -1.565667158738E0
    1.527175725242E0   -1.560284632156E0
    1.530510170057E0   -1.554895169308E0
    1.533844614872E0   -1.549498780307E0
    1.537179059687E0   -1.544095475377E0
    1.540513504502E0   -1.538685264849E0
    1.543847949316E0   -1.533268159171E0
    1.547182394131E0   -1.527844168912E0
    1.550516838946E0   -1.522413304765E0
    1.553851283761E0   -1.516975577552E0
    1.557185728576E0   -1.511530998233E0
    1.560520173391E0   -1.506079577906E0
    1.563854618206E0   -1.500621327813E0
    1.567189063021E0   -1.495156259347E0
    1.570523507836E0   -1.489684384055E0
    1.573857952651E0   -1.484205713643E0
    1.577192397466E0   -1.478720259984E0
    1.580526842281E0   -1.473228035118E0
    1.583861287096E0   -1.467729051263E0
    1.587195731911E0   -1.462223320814E0
    1.590530176726E0   -1.456710856353E0
    1.593864621541E0   -1.451191670650E0
    1.597199066355E0   -1.445665776674E0
    1.600533511170E0   -1.440133187593E0
    1.603867955985E0   -1.434593916779E0
    1.607202400800E0   -1.429047977817E0
    1.610536845615E0   -1.423495384509E0
    1.613871290430E0   -1.417936150877E0
    1.617205735245E0   -1.412370291171E0
