#             e [au]            f [a.u.]
   2.500000000000E-3    1.000000000000E0
   2.497522522523E-3   9.721660309713E-1
   2.495045045045E-3   9.040732625472E-1
   2.492567567568E-3   8.359467154477E-1
   2.490090090090E-3   7.761307611296E-1
   2.487612612613E-3   7.248026871598E-1
   2.485135135135E-3   6.806969361201E-1
   2.482657657658E-3   6.424965638608E-1
   2.480180180180E-3   6.090999883538E-1
   2.477702702703E-3   5.796338579286E-1
   2.475225225225E-3   5.534138528658E-1
   2.472747747748E-3   5.299023754717E-1
   2.470270270270E-3   5.086737031042E-1
   2.467792792793E-3   4.893873498708E-1
   2.465315315315E-3   4.717681690603E-1
   2.462837837838E-3   4.555915510417E-1
   2.460360360360E-3   4.406723667698E-1
   2.457882882883E-3   4.268566448988E-1
   2.455405405405E-3   4.140152482755E-1
   2.452927927928E-3   4.020390216893E-1
   2.450450450450E-3   3.908350327572E-1
   2.447972972973E-3   3.803236302442E-1
   2.445495495495E-3   3.704361222368E-1
   2.443018018018E-3   3.611129265721E-1
   2.440540540541E-3   3.523020858553E-1
   2.438063063063E-3   3.439580655140E-1
   2.435585585586E-3   3.360407740149E-1
   2.433108108108E-3   3.285147586197E-1
   2.430630630631E-3   3.213485409972E-1
   2.428153153153E-3   3.145140645645E-1
   2.425675675676E-3   3.079862331650E-1
   2.423198198198E-3   3.017425224149E-1
   2.420720720721E-3   2.957626519988E-1
   2.418243243243E-3   2.900283071453E-1
   2.415765765766E-3   2.845229010325E-1
   2.413288288288E-3   2.792313713233E-1
   2.410810810811E-3   2.741400052148E-1
   2.408333333333E-3   2.692362881804E-1
   2.405855855856E-3   2.645087730178E-1
   2.403378378378E-3   2.599469658635E-1
   2.400900900901E-3   2.555412266406E-1
   2.398423423423E-3   2.512826820681E-1
   2.395945945946E-3   2.471631490767E-1
   2.393468468468E-3   2.431750673539E-1
   2.390990990991E-3   2.393114399310E-1
   2.388513513514E-3   2.355657803108E-1
   2.386036036036E-3   2.319320656524E-1
   2.383558558559E-3   2.284046951828E-1
   2.381081081081E-3   2.249784528614E-1
   2.378603603604E-3   2.216484740362E-1
   2.376126126126E-3   2.184102157798E-1
   2.373648648649E-3   2.152594299760E-1
   2.371171171171E-3   2.121921391987E-1
   2.368693693694E-3   2.092046149143E-1
   2.366216216216E-3   2.062933579108E-1
   2.363738738739E-3   2.034550804904E-1
   2.361261261261E-3   2.006866901657E-1
   2.358783783784E-3   1.979852752556E-1
   2.356306306306E-3   1.953480912961E-1
   2.353828828829E-3   1.927725490747E-1
   2.351351351351E-3   1.902562033723E-1
   2.348873873874E-3   1.877967430129E-1
   2.346396396396E-3   1.853919813806E-1
   2.343918918919E-3   1.830398480406E-1
   2.341441441441E-3   1.807383808463E-1
   2.338963963964E-3   1.784857189355E-1
   2.336486486486E-3   1.762800957799E-1
   2.334009009009E-3   1.741198334815E-1
   2.331531531532E-3   1.720033369320E-1
   2.329054054054E-3   1.699290886453E-1
   2.326576576577E-3   1.678956439945E-1
   2.324099099099E-3   1.659016268466E-1
   2.321621621622E-3   1.639457253156E-1
   2.319144144144E-3   1.620266880925E-1
   2.316666666667E-3   1.601433207177E-1
   2.314189189189E-3   1.582944825072E-1
   2.311711711712E-3   1.564790833139E-1
   2.309234234234E-3   1.546960807497E-1
   2.306756756757E-3   1.529444775171E-1
   2.304279279279E-3   1.512233190122E-1
   2.301801801802E-3   1.495316907906E-1
   2.299324324324E-3   1.478687166940E-1
   2.296846846847E-3   1.462335565966E-1
   2.294369369369E-3   1.446254046719E-1
   2.291891891892E-3   1.430434873300E-1
   2.289414414414E-3   1.414870621108E-1
   2.286936936937E-3   1.399554154884E-1
   2.284459459459E-3   1.384478618776E-1
   2.281981981982E-3   1.369637420271E-1
   2.279504504505E-3   1.355024217548E-1
   2.277027027027E-3   1.340632908152E-1
   2.274549549550E-3   1.326457616411E-1
   2.272072072072E-3   1.312492683824E-1
   2.269594594595E-3   1.298732658747E-1
   2.267117117117E-3   1.285172283886E-1
   2.264639639640E-3   1.271806492112E-1
   2.262162162162E-3   1.258630395913E-1
   2.259684684685E-3   1.245639276689E-1
   2.257207207207E-3   1.232828581208E-1
   2.254729729730E-3   1.220193911199E-1
   2.252252252252E-3   1.207731019546E-1
   2.249774774775E-3   1.195435800336E-1
   2.247297297297E-3   1.183304285171E-1
   2.244819819820E-3   1.171332637131E-1
   2.242342342342E-3   1.159517144169E-1
   2.239864864865E-3   1.147854214874E-1
   2.237387387387E-3   1.136340373043E-1
   2.234909909910E-3   1.124972252824E-1
   2.232432432432E-3   1.113746594596E-1
   2.229954954955E-3   1.102660240424E-1
   2.227477477477E-3   1.091710131116E-1
   2.225000000000E-3   1.080893299600E-1
   2.222522522523E-3   1.070206870417E-1
   2.220045045045E-3   1.059648054399E-1
   2.217567567568E-3   1.049214146119E-1
   2.215090090090E-3   1.038902519295E-1
   2.212612612613E-3   1.028710625845E-1
   2.210135135135E-3   1.018635991712E-1
   2.207657657658E-3   1.008676214237E-1
   2.205180180180E-3   9.988289592857E-2
   2.202702702703E-3   9.890919595857E-2
   2.200225225225E-3   9.794630109024E-2
   2.197747747748E-3   9.699399723605E-2
   2.195270270270E-3   9.605207609499E-2
   2.192792792793E-3   9.512033516731E-2
   2.190315315315E-3   9.419857743544E-2
   2.187837837838E-3   9.328661128408E-2
   2.185360360360E-3   9.238425020603E-2
   2.182882882883E-3   9.149131264550E-2
   2.180405405405E-3   9.060762191750E-2
   2.177927927928E-3   8.973300594277E-2
   2.175450450450E-3   8.886729707991E-2
   2.172972972973E-3   8.801033212678E-2
   2.170495495495E-3   8.716195202960E-2
   2.168018018018E-3   8.632200177203E-2
   2.165540540541E-3   8.549033024417E-2
   2.163063063063E-3   8.466679017637E-2
   2.160585585586E-3   8.385123797860E-2
   2.158108108108E-3   8.304353360226E-2
   2.155630630631E-3   8.224354044601E-2
   2.153153153153E-3   8.145112519111E-2
   2.150675675676E-3   8.066615786654E-2
   2.148198198198E-3   7.988851147814E-2
   2.145720720721E-3   7.911806220267E-2
   2.143243243243E-3   7.835468910235E-2
   2.140765765766E-3   7.759827402384E-2
   2.138288288288E-3   7.684870177089E-2
   2.135810810811E-3   7.610585966271E-2
   2.133333333333E-3   7.536963766382E-2
   2.130855855856E-3   7.463992828066E-2
   2.128378378378E-3   7.391662643112E-2
   2.125900900901E-3   7.319962953559E-2
   2.123423423423E-3   7.248883713710E-2
   2.120945945946E-3   7.178415113521E-2
   2.118468468468E-3   7.108547567296E-2
   2.115990990991E-3   7.039271686340E-2
   2.113513513514E-3   6.970578294785E-2
   2.111036036036E-3   6.902458422613E-2
   2.108558558559E-3   6.834903283306E-2
   2.106081081081E-3   6.767904285531E-2
   2.103603603604E-3   6.701453022454E-2
   2.101126126126E-3   6.635541266832E-2
   2.098648648649E-3   6.570160961065E-2
   2.096171171171E-3   6.505304215849E-2
   2.093693693694E-3   6.440963314109E-2
   2.091216216216E-3   6.377130695601E-2
   2.088738738739E-3   6.313798946433E-2
   2.086261261261E-3   6.250960820864E-2
   2.083783783784E-3   6.188609210196E-2
   2.081306306306E-3   6.126737153598E-2
   2.078828828829E-3   6.065337824798E-2
   2.076351351351E-3   6.004404545024E-2
   2.073873873874E-3   5.943930761076E-2
   2.071396396396E-3   5.883910052137E-2
   2.068918918919E-3   5.824336117874E-2
   2.066441441441E-3   5.765202793480E-2
   2.063963963964E-3   5.706504019486E-2
   2.061486486486E-3   5.648233863611E-2
   2.059009009009E-3   5.590386508292E-2
   2.056531531532E-3   5.532956236095E-2
   2.054054054054E-3   5.475937457963E-2
   2.051576576577E-3   5.419324666697E-2
   2.049099099099E-3   5.363112480935E-2
   2.046621621622E-3   5.307295601449E-2
   2.044144144144E-3   5.251868842446E-2
   2.041666666667E-3   5.196827108274E-2
   2.039189189189E-3   5.142165396753E-2
   2.036711711712E-3   5.087878793174E-2
   2.034234234234E-3   5.033962484568E-2
   2.031756756757E-3   4.980411737298E-2
   2.029279279279E-3   4.927221894277E-2
   2.026801801802E-3   4.874388396305E-2
   2.024324324324E-3   4.821906766675E-2
   2.021846846847E-3   4.769772590091E-2
   2.019369369369E-3   4.717981547943E-2
   2.016891891892E-3   4.666529393279E-2
   2.014414414414E-3   4.615411946321E-2
   2.011936936937E-3   4.564625101195E-2
   2.009459459459E-3   4.514164835860E-2
   2.006981981982E-3   4.464027184210E-2
   2.004504504505E-3   4.414208249530E-2
   2.002027027027E-3   4.364704208607E-2
   1.999549549550E-3   4.315511295153E-2
   1.997072072072E-3   4.266625808322E-2
   1.994594594595E-3   4.218044107249E-2
   1.992117117117E-3   4.169762630203E-2
   1.989639639640E-3   4.121777845413E-2
   1.987162162162E-3   4.074086301143E-2
   1.984684684685E-3   4.026684595721E-2
   1.982207207207E-3   3.979569382829E-2
   1.979729729730E-3   3.932737368586E-2
   1.977252252252E-3   3.886185320723E-2
   1.974774774775E-3   3.839910048775E-2
   1.972297297297E-3   3.793908421808E-2
   1.969819819820E-3   3.748177357651E-2
   1.967342342342E-3   3.702713813243E-2
   1.964864864865E-3   3.657514814079E-2
   1.962387387387E-3   3.612577407960E-2
   1.959909909910E-3   3.567898706359E-2
   1.957432432432E-3   3.523475867254E-2
   1.954954954955E-3   3.479306079590E-2
   1.952477477477E-3   3.435386587534E-2
   1.950000000000E-3   3.391714672509E-2
   1.947522522523E-3   3.348287664819E-2
   1.945045045045E-3   3.305102915864E-2
   1.942567567568E-3   3.262157845852E-2
   1.940090090090E-3   3.219449892245E-2
   1.937612612613E-3   3.176976535304E-2
   1.935135135135E-3   3.134735299963E-2
   1.932657657658E-3   3.092723750398E-2
   1.930180180180E-3   3.050939471980E-2
   1.927702702703E-3   3.009380097357E-2
   1.925225225225E-3   2.968043294068E-2
   1.922747747748E-3   2.926926763591E-2
   1.920270270270E-3   2.886028236049E-2
   1.917792792793E-3   2.845345476433E-2
   1.915315315315E-3   2.804876291700E-2
   1.912837837838E-3   2.764618504790E-2
   1.910360360360E-3   2.724569985453E-2
   1.907882882883E-3   2.684728615084E-2
   1.905405405405E-3   2.645092325944E-2
   1.902927927928E-3   2.605659064359E-2
   1.900450450450E-3   2.566426816835E-2
   1.897972972973E-3   2.527393588857E-2
   1.895495495495E-3   2.488557422312E-2
   1.893018018018E-3   2.449916380087E-2
   1.890540540541E-3   2.411468551439E-2
   1.888063063063E-3   2.373212064407E-2
   1.885585585586E-3   2.335145057109E-2
   1.883108108108E-3   2.297265699324E-2
   1.880630630631E-3   2.259572187205E-2
   1.878153153153E-3   2.222062740765E-2
   1.875675675676E-3   2.184735605790E-2
   1.873198198198E-3   2.147589046557E-2
   1.870720720721E-3   2.110621356307E-2
   1.868243243243E-3   2.073830851677E-2
   1.865765765766E-3   2.037215864717E-2
   1.863288288288E-3   2.000774761932E-2
   1.860810810811E-3   1.964505914310E-2
   1.858333333333E-3   1.928407732267E-2
   1.855855855856E-3   1.892478636012E-2
   1.853378378378E-3   1.856717071081E-2
   1.850900900901E-3   1.821121501064E-2
   1.848423423423E-3   1.785690405354E-2
   1.845945945946E-3   1.750422299564E-2
   1.843468468468E-3   1.715315694352E-2
   1.840990990991E-3   1.680369137528E-2
   1.838513513514E-3   1.645581191368E-2
   1.836036036036E-3   1.610950435687E-2
   1.833558558559E-3   1.576475463794E-2
   1.831081081081E-3   1.542154898104E-2
   1.828603603604E-3   1.507987367133E-2
   1.826126126126E-3   1.473971522600E-2
   1.823648648649E-3   1.440106026176E-2
   1.821171171171E-3   1.406389572190E-2
   1.818693693694E-3   1.372820849578E-2
   1.816216216216E-3   1.339398584374E-2
   1.813738738739E-3   1.306121502204E-2
   1.811261261261E-3   1.272988349695E-2
   1.808783783784E-3   1.239997896146E-2
   1.806306306306E-3   1.207148911516E-2
   1.803828828829E-3   1.174440203730E-2
   1.801351351351E-3   1.141870562182E-2
   1.798873873874E-3   1.109438817727E-2
   1.796396396396E-3   1.077143811566E-2
   1.793918918919E-3   1.044984393463E-2
   1.791441441441E-3   1.012959418032E-2
   1.788963963964E-3   9.810677709468E-3
   1.786486486486E-3   9.493083446079E-3
   1.784009009009E-3   9.176800347203E-3
   1.781531531532E-3   8.861817682075E-3
   1.779054054054E-3   8.548124679066E-3
   1.776576576577E-3   8.235710791815E-3
   1.774099099099E-3   7.924565580300E-3
   1.771621621622E-3   7.614678706958E-3
   1.769144144144E-3   7.306039967458E-3
   1.766666666667E-3   6.998639240943E-3
   1.764189189189E-3   6.692466588899E-3
   1.761711711712E-3   6.387512145959E-3
   1.759234234234E-3   6.083766136840E-3
   1.756756756757E-3   5.781218966793E-3
   1.754279279279E-3   5.479861063536E-3
   1.751801801802E-3   5.179683036059E-3
   1.749324324324E-3   4.880675558260E-3
   1.746846846847E-3   4.582829420765E-3
   1.744369369369E-3   4.286135550111E-3
   1.741891891892E-3   3.990584890296E-3
   1.739414414414E-3   3.696168649511E-3
   1.736936936937E-3   3.402877898015E-3
   1.734459459459E-3   3.110703999961E-3
   1.731981981982E-3   2.819638349316E-3
   1.729504504505E-3   2.529672363810E-3
   1.727027027027E-3   2.240797712354E-3
   1.724549549550E-3   1.953005988420E-3
   1.722072072072E-3   1.666289016568E-3
   1.719594594595E-3   1.380638585184E-3
   1.717117117117E-3   1.096046666578E-3
   1.714639639640E-3   8.125053045973E-4
   1.712162162162E-3   5.300066109885E-4
   1.709684684685E-3   2.485427759921E-4
   1.707207207207E-3  -3.189391822913E-5
   1.704729729730E-3  -3.113111351205E-4
   1.702252252252E-3  -5.897164034483E-4
   1.699774774775E-3  -8.671172016259E-4
   1.697297297297E-3  -1.143520952281E-3
   1.694819819820E-3  -1.418934960040E-3
   1.692342342342E-3  -1.693366438067E-3
   1.689864864865E-3  -1.966822589562E-3
   1.687387387387E-3  -2.239310474356E-3
   1.684909909910E-3  -2.510837116633E-3
   1.682432432432E-3  -2.781409504333E-3
   1.679954954955E-3  -3.051034489882E-3
   1.677477477477E-3  -3.319718824150E-3
   1.675000000000E-3  -3.587469272667E-3
   1.672522522523E-3  -3.854292532098E-3
   1.670045045045E-3  -4.120195136719E-3
   1.667567567568E-3  -4.385183711358E-3
   1.665090090090E-3  -4.649264606271E-3
   1.662612612613E-3  -4.912444283385E-3
   1.660135135135E-3  -5.174729063412E-3
   1.657657657658E-3  -5.436125217427E-3
   1.655180180180E-3  -5.696638963190E-3
   1.652702702703E-3  -5.956276396443E-3
   1.650225225225E-3  -6.215043652338E-3
   1.647747747748E-3  -6.472946692362E-3
   1.645270270270E-3  -6.729991556189E-3
   1.642792792793E-3  -6.986184062092E-3
   1.640315315315E-3  -7.241530133150E-3
   1.637837837838E-3  -7.496035504911E-3
   1.635360360360E-3  -7.749705934439E-3
   1.632882882883E-3  -8.002547065764E-3
   1.630405405405E-3  -8.254564580733E-3
   1.627927927928E-3  -8.505764019074E-3
   1.625450450450E-3  -8.756150859902E-3
   1.622972972973E-3  -9.005730571827E-3
   1.620495495495E-3  -9.254508544508E-3
   1.618018018018E-3  -9.502490130685E-3
   1.615540540541E-3  -9.749680722517E-3
   1.613063063063E-3  -9.996085479494E-3
   1.610585585586E-3  -1.024170962731E-2
   1.608108108108E-3  -1.048655828795E-2
   1.605630630631E-3  -1.073063662001E-2
   1.603153153153E-3  -1.097394965247E-2
   1.600675675676E-3  -1.121650240031E-2
   1.598198198198E-3  -1.145829983301E-2
   1.595720720721E-3  -1.169934688324E-2
   1.593243243243E-3  -1.193964830730E-2
   1.590765765766E-3  -1.217920907831E-2
   1.588288288288E-3  -1.241803385306E-2
   1.585810810811E-3  -1.265612744297E-2
   1.583333333333E-3  -1.289349443835E-2
   1.580855855856E-3  -1.313013961517E-2
   1.578378378378E-3  -1.336606753369E-2
   1.575900900901E-3  -1.360128272262E-2
   1.573423423423E-3  -1.383578971739E-2
   1.570945945946E-3  -1.406959302928E-2
   1.568468468468E-3  -1.430269706906E-2
   1.565990990991E-3  -1.453510620907E-2
   1.563513513514E-3  -1.476682485419E-2
   1.561036036036E-3  -1.499785729460E-2
   1.558558558559E-3  -1.522820781045E-2
   1.556081081081E-3  -1.545788063904E-2
   1.553603603604E-3  -1.568688001403E-2
   1.551126126126E-3  -1.591521010324E-2
   1.548648648649E-3  -1.614287499909E-2
   1.546171171171E-3  -1.636987880974E-2
   1.543693693694E-3  -1.659622561170E-2
   1.541216216216E-3  -1.682191942238E-2
   1.538738738739E-3  -1.704696419715E-2
   1.536261261261E-3  -1.727136396581E-2
   1.533783783784E-3  -1.749512250589E-2
   1.531306306306E-3  -1.771824377412E-2
   1.528828828829E-3  -1.794073168642E-2
   1.526351351351E-3  -1.816258993274E-2
   1.523873873874E-3  -1.838382233553E-2
   1.521396396396E-3  -1.860443271369E-2
   1.518918918919E-3  -1.882442471309E-2
   1.516441441441E-3  -1.904380202393E-2
   1.513963963964E-3  -1.926256833693E-2
   1.511486486486E-3  -1.948072725477E-2
   1.509009009009E-3  -1.969828234626E-2
   1.506531531532E-3  -1.991523718598E-2
   1.504054054054E-3  -2.013159532729E-2
   1.501576576577E-3  -2.034736022318E-2
   1.499099099099E-3  -2.056253537241E-2
   1.496621621622E-3  -2.077712421889E-2
   1.494144144144E-3  -2.099113014480E-2
   1.491666666667E-3  -2.120455657688E-2
   1.489189189189E-3  -2.141740683318E-2
   1.486711711712E-3  -2.162968429831E-2
   1.484234234234E-3  -2.184139219117E-2
   1.481756756757E-3  -2.205253386929E-2
   1.479279279279E-3  -2.226311249383E-2
   1.476801801802E-3  -2.247313134661E-2
   1.474324324324E-3  -2.268259362353E-2
   1.471846846847E-3  -2.289150239138E-2
   1.469369369369E-3  -2.309986090840E-2
   1.466891891892E-3  -2.330767225736E-2
   1.464414414414E-3  -2.351493945426E-2
   1.461936936937E-3  -2.372166562805E-2
   1.459459459459E-3  -2.392785383173E-2
   1.456981981982E-3  -2.413350706609E-2
   1.454504504505E-3  -2.433862830756E-2
   1.452027027027E-3  -2.454322053025E-2
   1.449549549550E-3  -2.474728665315E-2
   1.447072072072E-3  -2.495082962314E-2
   1.444594594595E-3  -2.515385229707E-2
   1.442117117117E-3  -2.535635762086E-2
   1.439639639640E-3  -2.555834832433E-2
   1.437162162162E-3  -2.575982734976E-2
   1.434684684685E-3  -2.596079745388E-2
   1.432207207207E-3  -2.616126140682E-2
   1.429729729730E-3  -2.636122195601E-2
   1.427252252252E-3  -2.656068193242E-2
   1.424774774775E-3  -2.675964391540E-2
   1.422297297297E-3  -2.695811068274E-2
   1.419819819820E-3  -2.715608492296E-2
   1.417342342342E-3  -2.735356926060E-2
   1.414864864865E-3  -2.755056628681E-2
   1.412387387387E-3  -2.774707870732E-2
   1.409909909910E-3  -2.794310902173E-2
   1.407432432432E-3  -2.813865982993E-2
   1.404954954955E-3  -2.833373368108E-2
   1.402477477477E-3  -2.852833313685E-2
   1.400000000000E-3  -2.872246072825E-2
   1.397522522523E-3  -2.891611887062E-2
   1.395045045045E-3  -2.910931009378E-2
   1.392567567568E-3  -2.930203685480E-2
   1.390090090090E-3  -2.949430157979E-2
   1.387612612613E-3  -2.968610668601E-2
   1.385135135135E-3  -2.987745453579E-2
   1.382657657658E-3  -3.006834758851E-2
   1.380180180180E-3  -3.025878812841E-2
   1.377702702703E-3  -3.044877856540E-2
   1.375225225225E-3  -3.063832118706E-2
   1.372747747748E-3  -3.082741830957E-2
   1.370270270270E-3  -3.101607226571E-2
   1.367792792793E-3  -3.120428528222E-2
   1.365315315315E-3  -3.139205969081E-2
   1.362837837838E-3  -3.157939761685E-2
   1.360360360360E-3  -3.176630139928E-2
   1.357882882883E-3  -3.195277321877E-2
   1.355405405405E-3  -3.213881518162E-2
   1.352927927928E-3  -3.232442962871E-2
   1.350450450450E-3  -3.250961858404E-2
   1.347972972973E-3  -3.269438422439E-2
   1.345495495495E-3  -3.287872869920E-2
   1.343018018018E-3  -3.306265413813E-2
   1.340540540541E-3  -3.324616262315E-2
   1.338063063063E-3  -3.342925622438E-2
   1.335585585586E-3  -3.361193701784E-2
   1.333108108108E-3  -3.379420710349E-2
   1.330630630631E-3  -3.397606847185E-2
   1.328153153153E-3  -3.415752315687E-2
   1.325675675676E-3  -3.433857311571E-2
   1.323198198198E-3  -3.451922045198E-2
   1.320720720721E-3  -3.469946704472E-2
   1.318243243243E-3  -3.487931496799E-2
   1.315765765766E-3  -3.505876607209E-2
   1.313288288288E-3  -3.523782234997E-2
   1.310810810811E-3  -3.541648571002E-2
   1.308333333333E-3  -3.559475807488E-2
   1.305855855856E-3  -3.577264132004E-2
   1.303378378378E-3  -3.595013738183E-2
   1.300900900901E-3  -3.612724808754E-2
   1.298423423423E-3  -3.630397531633E-2
