#             e [au]            f [a.u.]
   -1.118645000000E1  -9.999999878615E-1
   -1.117525235235E1  -9.999999877460E-1
   -1.116405470470E1  -9.999999876293E-1
   -1.115285705706E1  -9.999999875115E-1
   -1.114165940941E1  -9.999999873924E-1
   -1.113046176176E1  -9.999999872722E-1
   -1.111926411411E1  -9.999999871508E-1
   -1.110806646647E1  -9.999999870281E-1
   -1.109686881882E1  -9.999999869042E-1
   -1.108567117117E1  -9.999999867791E-1
   -1.107447352352E1  -9.999999866527E-1
   -1.106327587588E1  -9.999999865250E-1
   -1.105207822823E1  -9.999999863961E-1
   -1.104088058058E1  -9.999999862658E-1
   -1.102968293293E1  -9.999999861342E-1
   -1.101848528529E1  -9.999999860013E-1
   -1.100728763764E1  -9.999999858671E-1
   -1.099608998999E1  -9.999999857315E-1
   -1.098489234234E1  -9.999999855945E-1
   -1.097369469469E1  -9.999999854562E-1
   -1.096249704705E1  -9.999999853164E-1
   -1.095129939940E1  -9.999999851753E-1
   -1.094010175175E1  -9.999999850327E-1
   -1.092890410410E1  -9.999999848886E-1
   -1.091770645646E1  -9.999999847431E-1
   -1.090650880881E1  -9.999999845961E-1
   -1.089531116116E1  -9.999999844476E-1
   -1.088411351351E1  -9.999999842977E-1
   -1.087291586587E1  -9.999999841461E-1
   -1.086171821822E1  -9.999999839931E-1
   -1.085052057057E1  -9.999999838385E-1
   -1.083932292292E1  -9.999999836823E-1
   -1.082812527528E1  -9.999999835245E-1
   -1.081692762763E1  -9.999999833652E-1
   -1.080572997998E1  -9.999999832041E-1
   -1.079453233233E1  -9.999999830415E-1
   -1.078333468468E1  -9.999999828772E-1
   -1.077213703704E1  -9.999999827112E-1
   -1.076093938939E1  -9.999999825435E-1
   -1.074974174174E1  -9.999999823741E-1
   -1.073854409409E1  -9.999999822030E-1
   -1.072734644645E1  -9.999999820301E-1
   -1.071614879880E1  -9.999999818554E-1
   -1.070495115115E1  -9.999999816790E-1
   -1.069375350350E1  -9.999999815007E-1
   -1.068255585586E1  -9.999999813206E-1
   -1.067135820821E1  -9.999999811387E-1
   -1.066016056056E1  -9.999999809549E-1
   -1.064896291291E1  -9.999999807692E-1
   -1.063776526527E1  -9.999999805816E-1
   -1.062656761762E1  -9.999999803921E-1
   -1.061536996997E1  -9.999999802006E-1
   -1.060417232232E1  -9.999999800071E-1
   -1.059297467467E1  -9.999999798117E-1
   -1.058177702703E1  -9.999999796142E-1
   -1.057057937938E1  -9.999999794147E-1
   -1.055938173173E1  -9.999999792131E-1
   -1.054818408408E1  -9.999999790095E-1
   -1.053698643644E1  -9.999999788037E-1
   -1.052578878879E1  -9.999999785958E-1
   -1.051459114114E1  -9.999999783858E-1
   -1.050339349349E1  -9.999999781736E-1
   -1.049219584585E1  -9.999999779592E-1
   -1.048099819820E1  -9.999999777426E-1
   -1.046980055055E1  -9.999999775237E-1
   -1.045860290290E1  -9.999999773026E-1
   -1.044740525526E1  -9.999999770791E-1
   -1.043620760761E1  -9.999999768534E-1
   -1.042500995996E1  -9.999999766253E-1
   -1.041381231231E1  -9.999999763948E-1
   -1.040261466466E1  -9.999999761619E-1
   -1.039141701702E1  -9.999999759266E-1
   -1.038021936937E1  -9.999999756888E-1
   -1.036902172172E1  -9.999999754486E-1
   -1.035782407407E1  -9.999999752059E-1
   -1.034662642643E1  -9.999999749606E-1
   -1.033542877878E1  -9.999999747128E-1
   -1.032423113113E1  -9.999999744624E-1
   -1.031303348348E1  -9.999999742093E-1
   -1.030183583584E1  -9.999999739536E-1
   -1.029063818819E1  -9.999999736953E-1
   -1.027944054054E1  -9.999999734342E-1
   -1.026824289289E1  -9.999999731704E-1
   -1.025704524525E1  -9.999999729038E-1
   -1.024584759760E1  -9.999999726345E-1
   -1.023464994995E1  -9.999999723623E-1
   -1.022345230230E1  -9.999999720872E-1
   -1.021225465465E1  -9.999999718093E-1
   -1.020105700701E1  -9.999999715284E-1
   -1.018985935936E1  -9.999999712446E-1
   -1.017866171171E1  -9.999999709578E-1
   -1.016746406406E1  -9.999999706680E-1
   -1.015626641642E1  -9.999999703751E-1
   -1.014506876877E1  -9.999999700791E-1
   -1.013387112112E1  -9.999999697801E-1
   -1.012267347347E1  -9.999999694778E-1
   -1.011147582583E1  -9.999999691724E-1
   -1.010027817818E1  -9.999999688637E-1
   -1.008908053053E1  -9.999999685518E-1
   -1.007788288288E1  -9.999999682365E-1
   -1.006668523524E1  -9.999999679180E-1
   -1.005548758759E1  -9.999999675960E-1
   -1.004428993994E1  -9.999999672707E-1
   -1.003309229229E1  -9.999999669418E-1
   -1.002189464464E1  -9.999999666095E-1
   -1.001069699700E1  -9.999999662737E-1
   -9.999499349349E0  -9.999999659343E-1
   -9.988301701702E0  -9.999999655913E-1
   -9.977104054054E0  -9.999999652447E-1
   -9.965906406406E0  -9.999999648943E-1
   -9.954708758759E0  -9.999999645402E-1
   -9.943511111111E0  -9.996858845804E-1
   -9.932313463463E0  -9.996248429915E-1
   -9.921115815816E0  -9.995440225421E-1
   -9.909918168168E0  -9.994622290727E-1
   -9.898720520521E0  -9.993553768655E-1
   -9.887522872873E0  -9.992482649937E-1
   -9.876325225225E0  -9.991275642960E-1
   -9.865127577578E0  -9.989726189842E-1
   -9.853929929930E0  -9.988191215525E-1
   -9.842732282282E0  -9.986483031953E-1
   -9.831534634635E0  -9.984588890399E-1
   -9.820336986987E0  -9.982495719089E-1
   -9.809139339339E0  -9.980503910869E-1
   -9.797941691692E0  -9.978000156857E-1
   -9.786744044044E0  -9.975257870573E-1
   -9.775546396396E0  -9.972660635546E-1
   -9.764348748749E0  -9.969430583387E-1
   -9.753151101101E0  -9.966379072395E-1
   -9.741953453453E0  -9.962608755460E-1
   -9.730755805806E0  -9.959054500300E-1
   -9.719558158158E0  -9.955246515809E-1
   -9.708360510511E0  -9.950583847989E-1
   -9.697162862863E0  -9.946199512572E-1
   -9.685965215215E0  -9.941525683033E-1
   -9.674767567568E0  -9.936550570737E-1
   -9.663569919920E0  -9.931262313216E-1
   -9.652372272272E0  -9.925648991532E-1
   -9.641174624625E0  -9.919698647834E-1
   -9.629976976977E0  -9.913399303083E-1
   -9.618779329329E0  -9.907626287430E-1
   -9.607581681682E0  -9.900633470957E-1
   -9.596384034034E0  -9.893256309982E-1
   -9.585186386386E0  -9.886489433839E-1
   -9.573988738739E0  -9.878349811524E-1
   -9.562791091091E0  -9.869790588903E-1
   -9.551593443443E0  -9.861930194579E-1
   -9.540395795796E0  -9.853709518315E-1
   -9.529198148148E0  -9.843907920176E-1
   -9.518000500501E0  -9.834894253921E-1
   -9.506802852853E0  -9.825487904763E-1
   -9.495605205205E0  -9.814342793370E-1
   -9.484407557558E0  -9.804077491497E-1
   -9.473209909910E0  -9.793386866893E-1
   -9.462012262262E0  -9.782260076996E-1
   -9.450814614615E0  -9.770686257829E-1
   -9.439616966967E0  -9.758654532462E-1
   -9.428419319319E0  -9.746154019524E-1
   -9.417221671672E0  -9.733173841786E-1
   -9.406024024024E0  -9.719703134815E-1
   -9.394826376376E0  -9.705731055524E-1
   -9.383628728729E0  -9.691246790883E-1
   -9.372431081081E0  -9.676239566491E-1
   -9.361233433433E0  -9.660698655185E-1
   -9.350035785786E0  -9.644613385543E-1
   -9.338838138138E0  -9.629884096523E-1
   -9.327640490490E0  -9.612717412731E-1
   -9.316442842843E0  -9.594974183952E-1
   -9.305245195195E0  -9.578671243678E-1
   -9.294047547548E0  -9.559781139159E-1
   -9.282849899900E0  -9.542385589001E-1
   -9.271652252252E0  -9.522304824252E-1
   -9.260454604605E0  -9.501594631344E-1
   -9.249256956957E0  -9.482455996018E-1
   -9.238059309309E0  -9.462738071985E-1
   -9.226861661662E0  -9.440145568696E-1
   -9.215664014014E0  -9.419197664248E-1
   -9.204466366366E0  -9.395284823849E-1
   -9.193268718719E0  -9.373061101653E-1
   -9.182071071071E0  -9.350198949287E-1
   -9.170873423423E0  -9.324240389113E-1
   -9.159675775776E0  -9.300033116618E-1
   -9.148478128128E0  -9.275151632834E-1
   -9.137280480480E0  -9.249583740920E-1
   -9.126082832833E0  -9.223317222769E-1
   -9.114885185185E0  -9.196339843739E-1
   -9.103687537538E0  -9.166021955019E-1
   -9.092489889890E0  -9.137559962606E-1
   -9.081292242242E0  -9.108351429451E-1
   -9.070094594595E0  -9.078384171748E-1
   -9.058896946947E0  -9.047646022663E-1
   -9.047699299299E0  -9.016124838891E-1
   -9.036501651652E0  -8.983808507541E-1
   -9.025304004004E0  -8.950684952816E-1
   -9.014106356356E0  -8.916742142929E-1
   -9.002908708709E0  -8.881968096991E-1
   -8.991711061061E0  -8.849176986815E-1
   -8.980513413413E0  -8.812718317701E-1
   -8.969315765766E0  -8.775391336039E-1
   -8.958118118118E0  -8.737184292024E-1
   -8.946920470470E0  -8.698085522677E-1
   -8.935722822823E0  -8.660974307466E-1
   -8.924525175175E0  -8.620063463576E-1
   -8.913327527528E0  -8.578224787793E-1
   -8.902129879880E0  -8.535446999754E-1
   -8.890932232232E0  -8.494637283130E-1
   -8.879734584585E0  -8.449947238001E-1
   -8.868536936937E0  -8.404283160888E-1
   -8.857339289289E0  -8.360560012253E-1
   -8.846141641642E0  -8.312909747398E-1
   -8.834943993994E0  -8.264251662106E-1
   -8.823746346346E0  -8.217493564044E-1
   -8.812548698699E0  -8.166777586526E-1
   -8.801351051051E0  -8.117931283682E-1
   -8.790153403403E0  -8.065109878415E-1
   -8.778955755756E0  -8.014121759392E-1
   -8.767758108108E0  -7.959148721533E-1
   -8.756560460460E0  -7.905966406480E-1
   -8.745362812813E0  -7.848797042964E-1
   -8.734165165165E0  -7.793369598708E-1
   -8.722967517518E0  -7.733960913438E-1
   -8.711769869870E0  -7.676239070857E-1
   -8.700572222222E0  -7.617346614034E-1
   -8.689374574575E0  -7.554486341822E-1
   -8.678176926927E0  -7.493227513079E-1
   -8.666979279279E0  -7.430760792925E-1
   -8.655781631632E0  -7.364357839113E-1
   -8.644583983984E0  -7.299457808094E-1
   -8.633386336336E0  -7.233315318361E-1
   -8.622188688689E0  -7.163286874834E-1
   -8.610991041041E0  -7.094650067353E-1
   -8.599793393393E0  -7.024739435965E-1
   -8.588595745746E0  -6.953544792822E-1
   -8.577398098098E0  -6.878553060683E-1
   -8.566200450450E0  -6.804792484494E-1
   -8.555002802803E0  -6.729721608509E-1
   -8.543805155155E0  -6.653332113319E-1
   -8.532607507508E0  -6.575616205614E-1
   -8.521409859860E0  -6.496566635274E-1
   -8.510212212212E0  -6.413904228053E-1
   -8.499014564565E0  -6.332207911280E-1
   -8.487816916917E0  -6.249161110119E-1
   -8.476619269269E0  -6.164758962450E-1
   -8.465421621622E0  -6.078997265336E-1
   -8.454223973974E0  -5.991872497958E-1
   -8.443026326326E0  -5.903381844485E-1
   -8.431828678679E0  -5.813523216616E-1
   -8.420631031031E0  -5.722295274885E-1
   -8.409433383383E0  -5.629697452131E-1
   -8.398235735736E0  -5.535729974091E-1
   -8.387038088088E0  -5.440393880571E-1
   -8.375840440440E0  -5.343691046694E-1
   -8.364642792793E0  -5.245624202609E-1
   -8.353445145145E0  -5.146196953451E-1
   -8.342247497497E0  -5.045413800330E-1
   -8.331049849850E0  -4.943280150432E-1
   -8.319852202202E0  -4.839802346599E-1
   -8.308654554555E0  -4.734987676802E-1
   -8.297456906907E0  -4.628844391381E-1
   -8.286259259259E0  -4.521381718311E-1
   -8.275061611612E0  -4.412609877125E-1
   -8.263863963964E0  -4.303690274437E-1
   -8.252666316316E0  -4.192277764986E-1
   -8.241468668669E0  -4.079593029622E-1
   -8.230271021021E0  -3.965650472691E-1
   -8.219073373373E0  -3.850465560727E-1
   -8.207875725726E0  -3.734054809776E-1
   -8.196678078078E0  -3.617266959772E-1
   -8.185480430430E0  -3.498403756625E-1
   -8.174282782783E0  -3.378371500562E-1
   -8.163085135135E0  -3.257191083247E-1
   -8.151887487487E0  -3.134884464732E-1
   -8.140689839840E0  -3.012058359381E-1
   -8.129492192192E0  -2.887519897009E-1
   -8.118294544545E0  -2.761928931754E-1
   -8.107096896897E0  -2.635311775063E-1
   -8.095899249249E0  -2.508103602923E-1
   -8.084701601602E0  -2.379473454393E-1
   -8.073503953954E0  -2.249904136019E-1
   -8.062306306306E0  -2.119720229085E-1
   -8.051108658659E0  -1.988326793650E-1
   -8.039911011011E0  -1.856090870816E-1
   -8.028713363363E0  -1.723241477912E-1
   -8.017515715716E0  -1.589390043860E-1
   -8.006318068068E0  -1.454801911043E-1
   -7.995120420420E0  -1.319628034847E-1
   -7.983922772773E0  -1.183651387133E-1
   -7.972725125125E0  -1.047052207630E-1
   -7.961527477477E0  -9.099231473881E-2
   -7.950329829830E0  -7.721791262707E-2
   -7.939132182182E0  -6.339608833192E-2
   -7.927934534535E0  -4.952445129908E-2
   -7.916736886887E0  -3.561130476840E-2
   -7.905539239239E0  -2.166115358772E-2
   -7.894341591592E0  -7.677455016312E-3
   -7.883143943944E0   6.334546125012E-3
   -7.871946296296E0   2.037021588400E-2
   -7.860748648649E0   3.442427217358E-2
   -7.849551001001E0   4.849294274926E-2
   -7.838353353353E0   6.256889327199E-2
   -7.827155705706E0   7.665129685533E-2
   -7.815958058058E0   9.073417773496E-2
   -7.804760410410E0   1.048053848806E-1
   -7.793562762763E0   1.188730538432E-1
   -7.782365115115E0   1.329150538511E-1
   -7.771167467467E0   1.469336265419E-1
   -7.759969819820E0   1.609401001584E-1
   -7.748772172172E0   1.748983693542E-1
   -7.737574524525E0   1.888404801663E-1
   -7.726376876877E0   2.027180542047E-1
   -7.715179229229E0   2.165765217117E-1
   -7.703981581582E0   2.303532900401E-1
   -7.692783933934E0   2.441091298712E-1
   -7.681586286286E0   2.577653708796E-1
   -7.670388638639E0   2.713999907319E-1
   -7.659190990991E0   2.849164745493E-1
   -7.647993343343E0   2.983539385054E-1
   -7.636795695696E0   3.117698533362E-1
   -7.625598048048E0   3.250397047266E-1
   -7.614400400400E0   3.382168085694E-1
   -7.603202752753E0   3.513746886811E-1
   -7.592005105105E0   3.643580119621E-1
   -7.580807457457E0   3.773256318910E-1
   -7.569609809810E0   3.900988745222E-1
   -7.558412162162E0   4.027586966421E-1
   -7.547214514515E0   4.154087111811E-1
   -7.536016866867E0   4.278356784537E-1
   -7.524819219219E0   4.401383187795E-1
   -7.513621571572E0   4.524389324646E-1
   -7.502423923924E0   4.644882783569E-1
   -7.491226276276E0   4.764036464047E-1
   -7.480028628629E0   4.883264421749E-1
   -7.468830980981E0   4.999705666217E-1
   -7.457633333333E0   5.114723837540E-1
   -7.446435685686E0   5.229925143976E-1
   -7.435238038038E0   5.342077340770E-1
   -7.424040390390E0   5.452736777254E-1
   -7.412842742743E0   5.561883506744E-1
   -7.401645095095E0   5.671366280917E-1
   -7.390447447447E0   5.777483998627E-1
   -7.379249799800E0   5.882037718623E-1
   -7.368052152152E0   5.985013705199E-1
   -7.356854504505E0   6.088492133620E-1
   -7.345656856857E0   6.188323596506E-1
   -7.334459209209E0   6.286544084573E-1
   -7.323261561562E0   6.383145856491E-1
   -7.312063913914E0   6.480423440897E-1
   -7.300866266266E0   6.573811217412E-1
   -7.289668618619E0   6.665564234602E-1
   -7.278470970971E0   6.755680371962E-1
   -7.267273323323E0   6.844158851385E-1
   -7.256075675676E0   6.933522295228E-1
   -7.244878028028E0   7.018761347054E-1
   -7.233680380380E0   7.102366417554E-1
   -7.222482732733E0   7.184341710756E-1
   -7.211285085085E0   7.264692591558E-1
   -7.200087437437E0   7.346127255707E-1
   -7.188889789790E0   7.423273986057E-1
   -7.177692142142E0   7.498817130940E-1
   -7.166494494494E0   7.572766277298E-1
   -7.155296846847E0   7.645131967485E-1
   -7.144099199199E0   7.715925662378E-1
   -7.132901551552E0   7.788009009115E-1
   -7.121703903904E0   7.855709316802E-1
   -7.110506256256E0   7.921875197573E-1
   -7.099308608609E0   7.986521348054E-1
   -7.088110960961E0   8.049663169951E-1
   -7.076913313313E0   8.111316727952E-1
   -7.065715665666E0   8.171498708408E-1
   -7.054518018018E0   8.230226379154E-1
   -7.043320370370E0   8.290445101738E-1
   -7.032122722723E0   8.346315925205E-1
   -7.020925075075E0   8.400785597509E-1
   -7.009727427427E0   8.453873347274E-1
   -6.998529779780E0   8.505598793817E-1
   -6.987332132132E0   8.555981911055E-1
   -6.976134484484E0   8.605042992407E-1
   -6.964936836837E0   8.652802615799E-1
   -6.953739189189E0   8.699281614176E-1
   -6.942541541542E0   8.744501037760E-1
   -6.931343893894E0   8.788482126830E-1
   -6.920146246246E0   8.831246280709E-1
   -6.908948598599E0   8.872815028895E-1
   -6.897750950951E0   8.916004627328E-1
   -6.886553303303E0   8.955225006830E-1
   -6.875355655656E0   8.993313833668E-1
   -6.864158008008E0   9.030292936557E-1
   -6.852960360360E0   9.066184146950E-1
   -6.841762712713E0   9.101009275758E-1
   -6.830565065065E0   9.134790092455E-1
   -6.819367417417E0   9.167548304441E-1
   -6.808169769770E0   9.199305537693E-1
   -6.796972122122E0   9.230083318438E-1
   -6.785774474474E0   9.259903055656E-1
   -6.774576826827E0   9.288786024857E-1
   -6.763379179179E0   9.316753351988E-1
   -6.752181531532E0   9.343826001075E-1
   -6.740983883884E0   9.370024757420E-1
   -6.729786236236E0   9.395370217053E-1
   -6.718588588589E0   9.419882774211E-1
   -6.707390940941E0   9.443582610520E-1
   -6.696193293293E0   9.466489684596E-1
   -6.684995645646E0   9.488623722640E-1
   -6.673797997998E0   9.510004209718E-1
   -6.662600350350E0   9.530650381882E-1
   -6.651402702703E0   9.550581218819E-1
   -6.640205055055E0   9.569815437219E-1
   -6.629007407407E0   9.588371484951E-1
   -6.617809759760E0   9.606267535534E-1
   -6.606612112112E0   9.623521483592E-1
   -6.595414464464E0   9.638263679783E-1
   -6.584216816817E0   9.654325762357E-1
   -6.573019169169E0   9.669797749160E-1
   -6.561821521522E0   9.684696346628E-1
   -6.550623873874E0   9.699037966519E-1
   -6.539426226226E0   9.712838725350E-1
   -6.528228578579E0   9.726114442862E-1
   -6.517030930931E0   9.738880641002E-1
   -6.505833283283E0   9.751152543554E-1
   -6.494635635636E0   9.762945075842E-1
   -6.483437987988E0   9.774272864966E-1
   -6.472240340340E0   9.785150240204E-1
   -6.461042692693E0   9.795591233955E-1
   -6.449845045045E0   9.804234928798E-1
   -6.438647397397E0   9.813881502720E-1
   -6.427449749750E0   9.823131676966E-1
   -6.416252102102E0   9.831998285907E-1
   -6.405054454454E0   9.840493875549E-1
   -6.393856806807E0   9.848630705777E-1
   -6.382659159159E0   9.856420752710E-1
   -6.371461511512E0   9.863875711053E-1
   -6.360263863864E0   9.871006997372E-1
   -6.349066216216E0   9.877825752034E-1
   -6.337868568569E0   9.883324102686E-1
   -6.326670920921E0   9.889583001832E-1
   -6.315473273273E0   9.895560647827E-1
   -6.304275625626E0   9.901267095706E-1
   -6.293077977978E0   9.906712141516E-1
   -6.281880330330E0   9.911905325567E-1
   -6.270682682683E0   9.916855936629E-1
   -6.259485035035E0   9.920771688815E-1
   -6.248287387387E0   9.925292902489E-1
   -6.237089739740E0   9.929597350395E-1
   -6.225892092092E0   9.933693341944E-1
   -6.214694444444E0   9.937588953621E-1
   -6.203496796797E0   9.941292032723E-1
   -6.192299149149E0   9.944171307992E-1
   -6.181101501502E0   9.947537186501E-1
   -6.169903853854E0   9.950732135021E-1
   -6.158706206206E0   9.953763119783E-1
   -6.147508558559E0   9.956636897675E-1
   -6.136310910911E0   9.959360019967E-1
   -6.125113263263E0   9.961439923667E-1
   -6.113915615616E0   9.963902137080E-1
   -6.102717967968E0   9.966231555136E-1
   -6.091520320320E0   9.968433946453E-1
   -6.080322672673E0   9.970514893612E-1
   -6.069125025025E0   9.972479796929E-1
   -6.057927377377E0   9.973952984780E-1
   -6.046729729730E0   9.975719290701E-1
   -6.035532082082E0   9.977384124018E-1
   -6.024334434434E0   9.978952197876E-1
   -6.013136786787E0   9.980428062017E-1
   -6.001939139139E0   9.981517230501E-1
   -5.990741491491E0   9.982836898362E-1
   -5.979543843844E0   9.984076522356E-1
   -5.968346196196E0   9.985240041403E-1
   -5.957148548549E0   9.986087820302E-1
   -5.945950900901E0   9.987123500139E-1
   -5.934753253253E0   9.988093529090E-1
   -5.923555605606E0   9.989001293577E-1
   -5.912357957958E0   9.989850048506E-1
   -5.901160310310E0   9.990458206814E-1
   -5.889962662663E0   9.991208941592E-1
   -5.878765015015E0   9.991909218938E-1
   -5.867567367367E0   9.992561809962E-1
   -5.856369719720E0   9.993023134923E-1
   -5.845172072072E0   9.993597237565E-1
   -5.833974424424E0   9.994130874062E-1
   -5.822776776777E0   9.994626383549E-1
   -5.811579129129E0   9.994971842479E-1
   -5.800381481481E0   9.995405194242E-1
   -5.789183833834E0   9.995806459900E-1
   -5.777986186186E0   9.996177595406E-1
   -5.766788538539E0   9.996432686825E-1
   -5.755590890891E0   9.996755189192E-1
