#             e [au]            f [a.u.]
   -1.051873208668E1  -9.999999784641E-1
   -1.050820280031E1  -9.999999782654E-1
   -1.049767351393E1  -9.999999780648E-1
   -1.048714422756E1  -9.999999778622E-1
   -1.047661494119E1  -9.999999776576E-1
   -1.046608565481E1  -9.999999774510E-1
   -1.045555636844E1  -9.999999772424E-1
   -1.044502708207E1  -9.999999770318E-1
   -1.043449779569E1  -9.999999768191E-1
   -1.042396850932E1  -9.999999766044E-1
   -1.041343922295E1  -9.999999763875E-1
   -1.040290993658E1  -9.999999761685E-1
   -1.039238065020E1  -9.999999759474E-1
   -1.038185136383E1  -9.999999757241E-1
   -1.037132207746E1  -9.999999754986E-1
   -1.036079279108E1  -9.999999752710E-1
   -1.035026350471E1  -9.999999750410E-1
   -1.033973421834E1  -9.999999748089E-1
   -1.032920493196E1  -9.999999745744E-1
   -1.031867564559E1  -9.999999743376E-1
   -1.030814635922E1  -9.999999740986E-1
   -1.029761707284E1  -9.999999738571E-1
   -1.028708778647E1  -9.999999736133E-1
   -1.027655850010E1  -9.999999733671E-1
   -1.026602921373E1  -9.999999731184E-1
   -1.025549992735E1  -9.999999728674E-1
   -1.024497064098E1  -9.999999726138E-1
   -1.023444135461E1  -9.999999723577E-1
   -1.022391206823E1  -9.999999720991E-1
   -1.021338278186E1  -9.999999718380E-1
   -1.020285349549E1  -9.999999715742E-1
   -1.019232420911E1  -9.999999713079E-1
   -1.018179492274E1  -9.999999710389E-1
   -1.017126563637E1  -9.999999707673E-1
   -1.016073635000E1  -9.999999704930E-1
   -1.015020706362E1  -9.999999702159E-1
   -1.013967777725E1  -9.999999699361E-1
   -1.012914849088E1  -9.999999696536E-1
   -1.011861920450E1  -9.999999693682E-1
   -1.010808991813E1  -9.999999690800E-1
   -1.009756063176E1  -9.999999687889E-1
   -1.008703134538E1  -9.999999684949E-1
   -1.007650205901E1  -9.999999681980E-1
   -1.006597277264E1  -9.999999678982E-1
   -1.005544348626E1  -9.999999675954E-1
   -1.004491419989E1  -9.999999672895E-1
   -1.003438491352E1  -9.999999669806E-1
   -1.002385562715E1  -9.999999666686E-1
   -1.001332634077E1  -9.999999663535E-1
   -1.000279705440E1  -9.999999660353E-1
   -9.992267768026E0  -9.999999657139E-1
   -9.981738481653E0  -9.999999653893E-1
   -9.971209195280E0  -9.999999650614E-1
   -9.960679908907E0  -9.999999647302E-1
   -9.950150622534E0  -9.999999643957E-1
   -9.939621336161E0  -9.999999640579E-1
   -9.929092049788E0  -9.999999637167E-1
   -9.918562763415E0  -9.999999633720E-1
   -9.908033477042E0  -9.999999630239E-1
   -9.897504190669E0  -9.999999626723E-1
   -9.886974904296E0  -9.999999623172E-1
   -9.876445617923E0  -9.999999619585E-1
   -9.865916331550E0  -9.999999615962E-1
   -9.855387045177E0  -9.999999612303E-1
   -9.844857758804E0  -9.999999608606E-1
   -9.834328472431E0  -9.999999604872E-1
   -9.823799186058E0  -9.999999601101E-1
   -9.813269899685E0  -9.999999597292E-1
   -9.802740613312E0  -9.999999593444E-1
   -9.792211326938E0  -9.999999589557E-1
   -9.781682040565E0  -9.999999585631E-1
   -9.771152754192E0  -9.999999581666E-1
   -9.760623467819E0  -9.999999577660E-1
   -9.750094181446E0  -9.999999573614E-1
   -9.739564895073E0  -9.999999569526E-1
   -9.729035608700E0  -9.999999565398E-1
   -9.718506322327E0  -9.999999561227E-1
   -9.707977035954E0  -9.999999557014E-1
   -9.697447749581E0  -9.999999552759E-1
   -9.686918463208E0  -9.999999548460E-1
   -9.676389176835E0  -9.999999544117E-1
   -9.665859890462E0  -9.999999539730E-1
   -9.655330604089E0  -9.999999535299E-1
   -9.644801317716E0  -9.999999530823E-1
   -9.634272031343E0  -9.999999526301E-1
   -9.623742744970E0  -9.999999521732E-1
   -9.613213458597E0  -9.999999517118E-1
   -9.602684172224E0  -9.999999512456E-1
   -9.592154885850E0  -9.999999507746E-1
   -9.581625599477E0  -9.999999502989E-1
   -9.571096313104E0  -9.999999498182E-1
   -9.560567026731E0  -9.999999493327E-1
   -9.550037740358E0  -9.999999488422E-1
   -9.539508453985E0  -9.999999483467E-1
   -9.528979167612E0  -9.999999478461E-1
   -9.518449881239E0  -9.999999473403E-1
   -9.507920594866E0  -9.999999468294E-1
   -9.497391308493E0  -9.999999463132E-1
   -9.486862022120E0  -9.999999457918E-1
   -9.476332735747E0  -9.999999452649E-1
   -9.465803449374E0  -9.999999447327E-1
   -9.455274163001E0  -9.999999441950E-1
   -9.444744876628E0  -9.999999436517E-1
   -9.434215590255E0  -9.999999431028E-1
   -9.423686303882E0  -9.999999425483E-1
   -9.413157017509E0  -9.999999419881E-1
   -9.402627731136E0  -9.999999414221E-1
   -9.392098444763E0  -9.999999408502E-1
   -9.381569158389E0  -9.999999402725E-1
   -9.371039872016E0  -9.999999396887E-1
   -9.360510585643E0  -9.999999390990E-1
   -9.349981299270E0  -9.999999385031E-1
   -9.339452012897E0  -9.999999379010E-1
   -9.328922726524E0  -9.999999372927E-1
   -9.318393440151E0  -9.999999366781E-1
   -9.307864153778E0  -9.999999360572E-1
   -9.297334867405E0  -9.999999354297E-1
   -9.286805581032E0  -9.999999347958E-1
   -9.276276294659E0  -9.999999341553E-1
   -9.265747008286E0  -9.999999335081E-1
   -9.255217721913E0  -9.999999328542E-1
   -9.244688435540E0  -9.999999321935E-1
   -9.234159149167E0  -9.999999315259E-1
   -9.223629862794E0  -9.999999308513E-1
   -9.213100576421E0  -9.999999301697E-1
   -9.202571290048E0  -9.999999294810E-1
   -9.192042003675E0  -9.999999287850E-1
   -9.181512717301E0  -9.999999280819E-1
   -9.170983430928E0  -9.999999273713E-1
   -9.160454144555E0  -9.999999266533E-1
   -9.149924858182E0  -9.999999259279E-1
   -9.139395571809E0  -9.999999251948E-1
   -9.128866285436E0  -9.999999244540E-1
   -9.118336999063E0  -9.999999237055E-1
   -9.107807712690E0  -9.999999229491E-1
   -9.097278426317E0  -9.999999221847E-1
   -9.086749139944E0  -9.999999214123E-1
   -9.076219853571E0  -9.999999206318E-1
   -9.065690567198E0  -9.999999198431E-1
   -9.055161280825E0  -9.999999190461E-1
   -9.044631994452E0  -9.999999182407E-1
   -9.034102708079E0  -9.999999174268E-1
   -9.023573421706E0  -9.999999166044E-1
   -9.013044135333E0  -9.999999157732E-1
   -9.002514848960E0  -9.999999149333E-1
   -8.991985562587E0  -9.999999140845E-1
   -8.981456276213E0  -9.999999132267E-1
   -8.970926989840E0  -9.999999123599E-1
   -8.960397703467E0  -9.999999114838E-1
   -8.949868417094E0  -9.999999105985E-1
   -8.939339130721E0  -9.999999097038E-1
   -8.928809844348E0  -9.999999087997E-1
   -8.918280557975E0  -9.999999078859E-1
   -8.907751271602E0  -9.999999069624E-1
   -8.897221985229E0  -9.999999060291E-1
   -8.886692698856E0  -9.999999050859E-1
   -8.876163412483E0  -9.999999041326E-1
   -8.865634126110E0  -9.999999031692E-1
   -8.855104839737E0  -9.999999021956E-1
   -8.844575553364E0  -9.999999012116E-1
   -8.834046266991E0  -9.999999002170E-1
   -8.823516980618E0  -9.999998992119E-1
   -8.812987694245E0  -9.999998981960E-1
   -8.802458407872E0  -9.999998971693E-1
   -8.791929121499E0  -9.999998961315E-1
   -8.781399835125E0  -9.999998950827E-1
   -8.770870548752E0  -9.999998940227E-1
   -8.760341262379E0  -9.999998929513E-1
   -8.749811976006E0  -9.999998918684E-1
   -8.739282689633E0  -9.999998907739E-1
   -8.728753403260E0  -9.999998896676E-1
   -8.718224116887E0  -9.999998885495E-1
   -8.707694830514E0  -9.999998874193E-1
   -8.697165544141E0  -9.999998862770E-1
   -8.686636257768E0  -9.999998851224E-1
   -8.676106971395E0  -9.999998839554E-1
   -8.665577685022E0  -9.999998827758E-1
   -8.655048398649E0  -9.999998815835E-1
   -8.644519112276E0  -9.999998803783E-1
   -8.633989825903E0  -9.999998791601E-1
   -8.623460539530E0  -9.999998779287E-1
   -8.612931253157E0  -9.999998766841E-1
   -8.602401966784E0  -9.999998754259E-1
   -8.591872680411E0  -9.999998741542E-1
   -8.581343394037E0  -9.999998728686E-1
   -8.570814107664E0  -9.999998715692E-1
   -8.560284821291E0  -9.999998702556E-1
   -8.549755534918E0  -9.999998689278E-1
   -8.539226248545E0  -9.999998675856E-1
   -8.528696962172E0  -9.999998662288E-1
   -8.518167675799E0  -9.999998648572E-1
   -8.507638389426E0  -9.999998634707E-1
   -8.497109103053E0  -9.999998620691E-1
   -8.486579816680E0  -9.999998606523E-1
   -8.476050530307E0  -9.999998592200E-1
   -8.465521243934E0  -9.999998577720E-1
   -8.454991957561E0  -9.999998563083E-1
   -8.444462671188E0  -9.999998548286E-1
   -8.433933384815E0  -9.999998533327E-1
   -8.423404098442E0  -9.999998518204E-1
   -8.412874812069E0  -9.999998502916E-1
   -8.402345525696E0  -9.999998487460E-1
   -8.391816239323E0  -9.999998471835E-1
   -8.381286952950E0  -9.999998456039E-1
   -8.370757666576E0  -9.999998440069E-1
   -8.360228380203E0  -9.999998423924E-1
   -8.349699093830E0  -9.999998407601E-1
   -8.339169807457E0  -9.999998391099E-1
   -8.328640521084E0  -9.999998374415E-1
   -8.318111234711E0  -9.999998357548E-1
   -8.307581948338E0  -9.999998340495E-1
   -8.297052661965E0  -9.999998323254E-1
   -8.286523375592E0  -9.999998305822E-1
   -8.275994089219E0  -9.999998288198E-1
   -8.265464802846E0  -9.999998270379E-1
   -8.254935516473E0  -9.999998252364E-1
   -8.244406230100E0  -9.999998234148E-1
   -8.233876943727E0  -9.999998215732E-1
   -8.223347657354E0  -9.999998197111E-1
   -8.212818370981E0  -9.999998178284E-1
   -8.202289084608E0  -9.999998159248E-1
   -8.191759798235E0  -9.999998140000E-1
   -8.181230511862E0  -9.999998120539E-1
   -8.170701225488E0  -9.999998100861E-1
   -8.160171939115E0  -9.999998080965E-1
   -8.149642652742E0  -9.999998060847E-1
   -8.139113366369E0  -9.999998040505E-1
   -8.128584079996E0  -9.999998019936E-1
   -8.118054793623E0  -9.999997999138E-1
   -8.107525507250E0  -9.999997978107E-1
   -8.096996220877E0  -9.999997956842E-1
   -8.086466934504E0  -9.999997935339E-1
   -8.075937648131E0  -9.999997913595E-1
   -8.065408361758E0  -9.999997891608E-1
   -8.054879075385E0  -9.999997869375E-1
   -8.044349789012E0  -9.999997846892E-1
   -8.033820502639E0  -9.999997824157E-1
   -8.023291216266E0  -9.999997801167E-1
   -8.012761929893E0  -9.999997777919E-1
   -8.002232643520E0  -9.999997754410E-1
   -7.991703357147E0  -9.999997730636E-1
   -7.981174070774E0  -9.999997706594E-1
   -7.970644784400E0  -9.999997682282E-1
   -7.960115498027E0  -9.999997657695E-1
   -7.949586211654E0  -9.999997632832E-1
   -7.939056925281E0  -9.999997607687E-1
   -7.928527638908E0  -9.999997582259E-1
   -7.917998352535E0  -9.999997556543E-1
   -7.907469066162E0  -9.999997530536E-1
   -7.896939779789E0  -9.999997504235E-1
   -7.886410493416E0  -9.999997477636E-1
   -7.875881207043E0  -9.999997450735E-1
   -7.865351920670E0  -9.999997423529E-1
   -7.854822634297E0  -9.999997396014E-1
   -7.844293347924E0  -9.999997368187E-1
   -7.833764061551E0  -9.999997340044E-1
   -7.823234775178E0  -9.999997311580E-1
   -7.812705488805E0  -9.999997282792E-1
   -7.802176202432E0  -9.999997253676E-1
   -7.791646916059E0  -9.999997224228E-1
   -7.781117629686E0  -9.999997194444E-1
   -7.770588343312E0  -9.999997164321E-1
   -7.760059056939E0  -9.999997133853E-1
   -7.749529770566E0  -9.994835670238E-1
   -7.739000484193E0  -9.994484760457E-1
   -7.728471197820E0  -9.993983549036E-1
   -7.717941911447E0  -9.993586188659E-1
   -7.707412625074E0  -9.993167322862E-1
   -7.696883338701E0  -9.992726058483E-1
   -7.686354052328E0  -9.992261477689E-1
   -7.675824765955E0  -9.991772637724E-1
   -7.665295479582E0  -9.991258570667E-1
   -7.654766193209E0  -9.990718283192E-1
   -7.644236906836E0  -9.990150756343E-1
   -7.633707620463E0  -9.989554945313E-1
   -7.623178334090E0  -9.988929779231E-1
   -7.612649047717E0  -9.988274160961E-1
   -7.602119761344E0  -9.987586966907E-1
   -7.591590474971E0  -9.986867046822E-1
   -7.581061188598E0  -9.986113223637E-1
   -7.570531902224E0  -9.985324293286E-1
   -7.560002615851E0  -9.984499024546E-1
   -7.549473329478E0  -9.983636158890E-1
   -7.538944043105E0  -9.982734410334E-1
   -7.528414756732E0  -9.982087894934E-1
   -7.517885470359E0  -9.981115663301E-1
   -7.507356183986E0  -9.980100794421E-1
   -7.496826897613E0  -9.979041891836E-1
   -7.486297611240E0  -9.977937530840E-1
   -7.475768324867E0  -9.976786258385E-1
   -7.465239038494E0  -9.975586592993E-1
   -7.454709752121E0  -9.974337024677E-1
   -7.444180465748E0  -9.973036014874E-1
   -7.433651179375E0  -9.972085392141E-1
   -7.423121893002E0  -9.970690435949E-1
   -7.412592606629E0  -9.969239520313E-1
   -7.402063320256E0  -9.967730990492E-1
   -7.391534033883E0  -9.966163162705E-1
   -7.381004747510E0  -9.964534324098E-1
   -7.370475461136E0  -9.963329058211E-1
   -7.359946174763E0  -9.961588205721E-1
   -7.349416888390E0  -9.959781290603E-1
   -7.338887602017E0  -9.957906480922E-1
   -7.328358315644E0  -9.955961915425E-1
   -7.317829029271E0  -9.954507851910E-1
   -7.307299742898E0  -9.952434629955E-1
   -7.296770456525E0  -9.950286141167E-1
   -7.286241170152E0  -9.948060403305E-1
   -7.275711883779E0  -9.946382235742E-1
   -7.265182597406E0  -9.944013490963E-1
   -7.254653311033E0  -9.941561608788E-1
   -7.244124024660E0  -9.939024484695E-1
   -7.233594738287E0  -9.937095517697E-1
   -7.223065451914E0  -9.934399986762E-1
   -7.212536165541E0  -9.931612941075E-1
   -7.202006879168E0  -9.928732152903E-1
   -7.191477592795E0  -9.926523463848E-1
   -7.180948306422E0  -9.923467789500E-1
   -7.170419020049E0  -9.920311709039E-1
   -7.159889733675E0  -9.917877151976E-1
   -7.149360447302E0  -9.914533211754E-1
   -7.138831160929E0  -9.911081900643E-1
   -7.128301874556E0  -9.908403275338E-1
   -7.117772588183E0  -9.904750483546E-1
   -7.107243301810E0  -9.900983051137E-1
   -7.096714015437E0  -9.898041099114E-1
   -7.086184729064E0  -9.894057904057E-1
   -7.075655442691E0  -9.889952490240E-1
   -7.065126156318E0  -9.886726860011E-1
   -7.054596869945E0  -9.882390727379E-1
   -7.044067583572E0  -9.877924486319E-1
   -7.033538297199E0  -9.874393698947E-1
   -7.023009010826E0  -9.869681096087E-1
   -7.012479724453E0  -9.865941279127E-1
   -7.001950438080E0  -9.860971595880E-1
   -6.991421151707E0  -9.855857977064E-1
   -6.980891865334E0  -9.851774835634E-1
   -6.970362578961E0  -9.846387307146E-1
   -6.959833292587E0  -9.842068954560E-1
   -6.949304006214E0  -9.836395970574E-1
   -6.938774719841E0  -9.831831367389E-1
   -6.928245433468E0  -9.825861037187E-1
   -6.917716147095E0  -9.819725865360E-1
   -6.907186860722E0  -9.814758833576E-1
   -6.896657574349E0  -9.808307755229E-1
   -6.886128287976E0  -9.803064929732E-1
   -6.875599001603E0  -9.796285188858E-1
   -6.865069715230E0  -9.790754125795E-1
   -6.854540428857E0  -9.783632605713E-1
   -6.844011142484E0  -9.777800439078E-1
   -6.833481856111E0  -9.770323657973E-1
   -6.822952569738E0  -9.764177091386E-1
   -6.812423283365E0  -9.756331198070E-1
   -6.801893996992E0  -9.749856496668E-1
   -6.791364710619E0  -9.741627266427E-1
   -6.780835424246E0  -9.734810248920E-1
   -6.770306137873E0  -9.726183079685E-1
   -6.759776851499E0  -9.719009110598E-1
   -6.749247565126E0  -9.709969019297E-1
   -6.738718278753E0  -9.702423001452E-1
   -6.728188992380E0  -9.692954620530E-1
   -6.717659706007E0  -9.685020987730E-1
   -6.707130419634E0  -9.675108562104E-1
   -6.696601133261E0  -9.666771272133E-1
   -6.686071846888E0  -9.658239011454E-1
   -6.675542560515E0  -9.647641184160E-1
   -6.665013274142E0  -9.638680351215E-1
   -6.654483987769E0  -9.627597171198E-1
   -6.643954701396E0  -9.618190485174E-1
   -6.633425415023E0  -9.606604790396E-1
   -6.622896128650E0  -9.596734471568E-1
   -6.612366842277E0  -9.586638697054E-1
   -6.601837555904E0  -9.574276465492E-1
   -6.591308269531E0  -9.563689424941E-1
   -6.580778983158E0  -9.550779712975E-1
   -6.570249696785E0  -9.539682333675E-1
   -6.559720410411E0  -9.528335633697E-1
   -6.549191124038E0  -9.514579238733E-1
   -6.538661837665E0  -9.502692546781E-1
   -6.528132551292E0  -9.488341033934E-1
   -6.517603264919E0  -9.475893954470E-1
   -6.507073978546E0  -9.463171862973E-1
   -6.496544692173E0  -9.447899302364E-1
   -6.486015405800E0  -9.434585106832E-1
   -6.475486119427E0  -9.420979586006E-1
   -6.464956833054E0  -9.404739072585E-1
   -6.454427546681E0  -9.390508463621E-1
   -6.443898260308E0  -9.375969522322E-1
   -6.433368973935E0  -9.358712571488E-1
   -6.422839687562E0  -9.343514284212E-1
   -6.412310401189E0  -9.327989958993E-1
   -6.401781114816E0  -9.309666515753E-1
   -6.391251828443E0  -9.293447312454E-1
   -6.380722542070E0  -9.276883665066E-1
   -6.370193255697E0  -9.257442121283E-1
   -6.359663969323E0  -9.240146795020E-1
   -6.349134682950E0  -9.222487919540E-1
   -6.338605396577E0  -9.201875139374E-1
   -6.328076110204E0  -9.183446528242E-1
   -6.317546823831E0  -9.164634569397E-1
   -6.307017537458E0  -9.145432433586E-1
   -6.296488251085E0  -9.123174937508E-1
   -6.285958964712E0  -9.103150120794E-1
   -6.275429678339E0  -9.082714404891E-1
   -6.264900391966E0  -9.059155192151E-1
   -6.254371105593E0  -9.037855868167E-1
   -6.243841819220E0  -9.016124259794E-1
   -6.233312532847E0  -8.993952981252E-1
   -6.222783246474E0  -8.968568063896E-1
   -6.212253960101E0  -8.945476457425E-1
   -6.201724673728E0  -8.921922931327E-1
   -6.191195387355E0  -8.897899797968E-1
   -6.180666100982E0  -8.870580713528E-1
   -6.170136814609E0  -8.845578522408E-1
   -6.159607528236E0  -8.820083664822E-1
   -6.149078241862E0  -8.794088172063E-1
   -6.138548955489E0  -8.764723440562E-1
   -6.128019669116E0  -8.737688322134E-1
   -6.117490382743E0  -8.710128772044E-1
   -6.106961096370E0  -8.682036567493E-1
   -6.096431809997E0  -8.653403423029E-1
   -6.085902523624E0  -8.621318061081E-1
   -6.075373237251E0  -8.591566949176E-1
   -6.064843950878E0  -8.561250299649E-1
   -6.054314664505E0  -8.530359617708E-1
   -6.043785378132E0  -8.498886358558E-1
   -6.033256091759E0  -8.463895286630E-1
   -6.022726805386E0  -8.431223659147E-1
   -6.012197519013E0  -8.397944246447E-1
   -6.001668232640E0  -8.364048352560E-1
   -5.991138946267E0  -8.329527248208E-1
   -5.980609659894E0  -8.291442501075E-1
   -5.970080373521E0  -8.255641273723E-1
   -5.959551087148E0  -8.219189260083E-1
   -5.949021800774E0  -8.182077653038E-1
   -5.938492514401E0  -8.144297632938E-1
   -5.927963228028E0  -8.105840372099E-1
   -5.917433941655E0  -8.063787837162E-1
   -5.906904655282E0  -8.023951405953E-1
   -5.896375368909E0  -7.983412111148E-1
   -5.885846082536E0  -7.942161158165E-1
   -5.875316796163E0  -7.900189770895E-1
   -5.864787509790E0  -7.857489197547E-1
   -5.854258223417E0  -7.814050716736E-1
   -5.843728937044E0  -7.767018728355E-1
   -5.833199650671E0  -7.722086782052E-1
   -5.822670364298E0  -7.676391944850E-1
   -5.812141077925E0  -7.629925692353E-1
   -5.801611791552E0  -7.582679563898E-1
   -5.791082505179E0  -7.534645170145E-1
   -5.780553218806E0  -7.485814200562E-1
   -5.770023932433E0  -7.436178431180E-1
   -5.759494646060E0  -7.383009732077E-1
   -5.748965359686E0  -7.331756365780E-1
   -5.738436073313E0  -7.279675109582E-1
   -5.727906786940E0  -7.226758172457E-1
   -5.717377500567E0  -7.172997891808E-1
   -5.706848214194E0  -7.118386742264E-1
   -5.696318927821E0  -7.062917345504E-1
   -5.685789641448E0  -7.006582479655E-1
   -5.675260355075E0  -6.949375088803E-1
   -5.664731068702E0  -6.891288293444E-1
   -5.654201782329E0  -6.832315399746E-1
   -5.643672495956E0  -6.769998531255E-1
   -5.633143209583E0  -6.709261331384E-1
   -5.622613923210E0  -6.647620116363E-1
   -5.612084636837E0  -6.585069032847E-1
   -5.601555350464E0  -6.521602465777E-1
   -5.591026064091E0  -6.457215049108E-1
   -5.580496777718E0  -6.391901677265E-1
   -5.569967491345E0  -6.325657516507E-1
   -5.559438204972E0  -6.258478016465E-1
   -5.548908918598E0  -6.190358921287E-1
   -5.538379632225E0  -6.121296281966E-1
   -5.527850345852E0  -6.051286466849E-1
   -5.517321059479E0  -5.980326174870E-1
   -5.506791773106E0  -5.908412446275E-1
   -5.496262486733E0  -5.835542674617E-1
   -5.485733200360E0  -5.761714619251E-1
   -5.475203913987E0  -5.686926416084E-1
   -5.464674627614E0  -5.611176590240E-1
   -5.454145341241E0  -5.534464066886E-1
   -5.443616054868E0  -5.456788184137E-1
   -5.433086768495E0  -5.378148703529E-1
   -5.422557482122E0  -5.296877035709E-1
   -5.412028195749E0  -5.216354324458E-1
